Lead_1,Lead_2,Lead_3,Lead_4,Lead_5,Lead_6,Lead_7,Lead_8,Lead_9,Lead_10,Lead_11,Lead_12
0.4967141530112327,-0.20866837122046583,1.1888062411931566,0.5598117619307609,1.914904504978405,-2.0593542797751767,-0.1863535461024663,0.5922446040804317,-1.0441285405370946,1.2591913610888714,1.3427346255746524,-0.15122661604354168
-0.13826430117118466,-0.3126684457323573,-0.6650459180031121,0.14262139266888282,-1.0824410437804357,-0.07777963100956568,0.9756260594983872,-0.1830775224038034,0.5685440571303481,1.82777077059649,-1.1235458193212489,0.518509740511823
0.6476885381006925,0.857898825291343,-0.8557425799515072,1.0867589770265649,-1.208351949495599,-2.171124377556448,1.1268019242896752,0.22368082386268154,0.902374362768014,-0.11033970737795651,-1.6710108324322954,0.48244109152130593
1.5230298564080254,0.5535695310677933,-1.185921599186856,0.6712596660773543,-0.6642809744743209,0.09884350838950627,0.3939368139952677,-1.687023037718727,1.2274760735542907,-0.5636384644669592,1.3278584930998667,0.5947156149863272
-0.23415337472333597,-0.2573000006177896,0.18291456362025593,-1.3803898467240674,-0.7022972131912357,0.8540702507119534,1.0172413511892788,0.661352044831807,-0.268751130392931,2.1870672847682187,-0.6173613951692282,-1.76874371200963
-0.23413695694918055,1.0821123129931407,-1.8537322412191233,-0.8072777700103707,0.5262858686819794,0.2794155346036323,-2.112888358164718,-0.3955389205927723,0.46950285779807266,1.1210821493512841,1.3448824875027374,1.1970639124022735
1.5792128155073915,-0.12903411512978377,0.46215409605967733,1.3653287482758214,-0.4217118518435028,0.9381093589705979,-0.23052941168065752,-0.8073787727617568,0.8558266557769144,0.01249074688406641,-1.7919618551381415,-1.703310443676052
0.7674347291529088,-0.8516621743343933,-0.10919309450055267,-0.203298244576805,-1.5478404612786616,1.9648269416599147,-3.0805987271739275,1.314231839836257,-1.3510592496124665,0.6499616297085027,1.405156120266492,-0.7508948636767008
-0.4694743859349521,-0.7589706989033448,1.1346396998210568,1.1875918180180127,0.8915784566951168,-0.14353843726200877,-1.746093664567248,0.27358082267759304,0.2777715181630025,-1.044976174752692,1.0733522953771848,0.1953165002308043
0.5425600435859647,-0.978740836309766,-0.6719173104649906,-0.14968094791531705,-1.7599519260721297,2.807650783278881,-0.5460144969849473,-0.6654309301806954,0.9043472748664299,1.1094188199272383,0.5405635765509608,-0.029411356119098966
-0.46341769281246226,-0.2724100166036872,-0.20331828541750677,-0.9676564282885214,-1.0712182230107092,0.2126699561701546,-0.665384438996181,-0.6043931462494799,0.5103914454092845,-1.8000303928315362,-2.0042578988154265,1.4187215922460124
-0.46572975357025687,1.233724278336193,1.1222033332933687,-0.3032607776667061,-1.6227065707438688,0.9491650626903592,0.04141028914247959,0.3659063396404938,-0.08064666835778542,1.0706421398398702,-0.3624065968349841,-1.1707854744903794
0.24196227156603412,-0.8050951810305088,1.3831356467781524,-0.9680497955496961,0.20712127707087358,-0.6110627145650674,-0.020650511602989502,0.28817129647396195,2.6099451673236866,-0.7217108680904613,1.00751269295768,-0.36409334364048657
-1.913280244657798,0.1884757610181029,-0.68015236575182,-0.5655527624024238,0.18604771215121202,1.619313979630682,0.13374242998123173,0.029425051424444515,1.930518667546418,-1.6538786000320556,-1.6869987056300342,-1.969284491547744
-1.7249178325130328,-0.6566893456274132,0.1817812325871601,0.20092570656524597,1.9164543210163532,1.0417101985426294,0.17470964863067906,-1.2033563885959544,0.00939574467630873,-2.001374771086308,-0.5223473764246763,0.13160037952327958
-0.5622875292409727,-0.26030904127143756,0.2944189776840481,0.5116050903690205,0.9138266561455501,1.4714513025679976,0.33292272460297095,-1.0554640201092618,-0.18972679401771703,-0.4761525795312883,0.3964489382238101,-0.20808653399467175
-1.0128311203344238,-1.5100412119852522,0.3736534056211483,-1.5901913232542981,1.4416461833422005,0.05450442177395479,-0.9590446774119618,-0.748313978166258,0.7002786482026319,0.7111138257749583,-1.1589729870341288,-1.2399978237070963
0.3142473325952739,-0.2205382291565374,-0.26257565931562216,-0.01736800750909817,0.2886096512984931,-1.2554175643832894,-0.7247923193638015,-0.19614643075273572,-0.05752883077561697,-1.3898918614587392,1.3005022765450058,1.3091825381393059
-0.9080240755212109,-0.19370537980496205,1.2813833981236349,-0.5866157355597524,-0.9769318210905635,0.4603974396254061,-0.036878059294752734,-0.04131106310784013,1.271542408612589,-1.2355725894423146,1.1026074187856711,1.0799932377458739
-1.4123037013352915,0.5402879440356954,-1.8897034836215454,-0.6484148089588124,0.1281076019934963,-1.6970198133235157,-0.021342950672923657,-0.15997102573488056,-1.2672534126181327,-0.49422048151866427,0.2421909937268631,0.07208628332284155
1.465648768921554,0.22328091325537056,-0.421130234801084,0.13268461913307683,0.5924210073873067,-0.336185803621952,-1.0819273652962986,-0.11424496107048325,-0.24069964787718579,0.8075530144855749,0.43402575808919197,1.1384913398303795
-0.22577630048653566,-1.1983921249520453,0.4479307327729469,-0.550451872689212,0.7038073822515748,0.19108043663225058,1.0815593810130513,1.8812455979210698,0.6852460373710546,0.9325294858465353,-0.5404739546294228,-0.09243403323239652
0.06752820468792384,1.0841982440435427,0.45722481194934356,1.382137994846674,-0.47241214410834226,2.3772242925107676,0.7248006775508257,0.8492500865931712,1.0037482481462472,0.1398702657020494,0.589707997782794,0.7137487808535221
-1.4247481862134568,0.21030304022199536,1.352759030614763,1.1880618762510602,0.48878647378239914,0.3185486119419406,-0.8597166853631285,1.1882167565482367,-1.4809177057252645,0.9833696334909083,-0.5977195100040393,0.8630997485584352
-0.5443827245251827,0.19839351717748668,1.198225393201287,1.1818282939420395,-0.9330279708412645,0.13953746908303924,-0.2083660129166857,0.46426399156397974,-0.9540629221345474,0.6876107354110753,-0.19678124887278212,-1.068602965290333
0.11092258970986608,-0.009182353385138937,-0.28554162530722377,-0.49491019549030185,-1.043277594110717,-0.06303242403529276,2.0095396507971155,0.07240267231624782,-1.6762594209957002,-0.4169872957668561,-0.4924088711032832,0.43246120729580656
-1.1509935774223028,-0.5177574472222197,1.2998712435306046,-0.9624988349193223,-1.1157847113854849,-1.3420909047650176,0.1605770378342815,0.4099582396142124,-0.873178447309926,0.9095121105888697,1.4355255703164822,0.1683891058260276
0.37569801834567196,0.2178023397487261,-0.7140417437774549,0.08202992938811553,0.02462598855679703,0.08582584001300768,0.3956859552000656,0.22582017261543996,-1.2772144466332902,-1.284177486358534,1.207058680288627,-1.0240965301057563
-0.600638689918805,0.4755884359285824,0.9308873827918375,-0.1503483662862672,-1.1778363550763036,0.10288267613677246,-0.6089355511311296,0.8079782086115529,0.5391310979629965,0.4864863982101155,-1.0034453925741176,-1.27746468933877
-0.2916937497932768,-1.746895691345555,1.8105224784209932,-0.6088231624233649,-0.42474438987100777,-0.9686084954537172,-0.3131121085283415,-0.9751404666484338,0.22900455229064812,-1.1660143893757533,1.3376246037797381,0.4978987102578037
-0.6017066122293969,-0.5387608373460957,1.2149441068549691,-1.1757344466669615,0.902916551413958,-1.1867456144283648,1.5113259857834025,0.7247470946164272,-0.15382911261425813,0.14280053938900147,-0.7980179462338344,-0.2819141697510571
1.8522781845089378,-0.2549469704035893,0.10577038352412323,-0.04151796926807157,-1.029129678078305,-0.4815706827677333,0.11329442729253622,0.16705866877730188,0.026094801463353058,1.2185677005298081,1.852869992053925,-1.464895552105599
-0.013497224737933921,0.25617060569427813,-0.3317787717721222,-0.4040694502524733,-0.5043120335043169,0.06493297857269315,-0.0709282188728815,-1.807087037649139,1.1942395689071446,0.21319817991515186,1.5709505877366547,0.5794804912203171
-1.0577109289559004,1.193311005927126,-1.5285912962592862,0.6883470370380197,0.07163127677616955,-0.45755418138145815,0.007641085936465705,0.08572168663109299,-1.0422690863226234,-0.012577649742340179,2.192772324310873,0.9348359295602436
0.822544912103189,-0.7717408145967823,0.310539637914204,0.6651060515214794,0.24688690153226664,-1.0508754496515214,2.5453827884151843,-1.3062178008891838,-1.9302015856133403,0.22603109949750366,0.2929450915054078,-1.1710611046717783
-1.2208436499710222,-0.497961846817842,-1.1152172279709192,1.100799805422717,-0.499290590805561,0.2892722520043055,0.03980750314788466,-0.5349976733860501,0.7105118805130289,0.663309492084395,-0.2804884172460294,-0.0015443343551908534
0.2088635950047554,-0.5125341106465501,-0.7931346636139368,-1.2592955518800382,0.786860068735157,0.5388668241692289,-0.8300766992136013,-0.1591906597549413,-0.3909637044602697,2.1340020186585695,-0.3027632771364105,1.518425247654903
-1.9596701238797756,-0.8015275901045416,-1.1907458007366716,0.40105830769363265,0.5904523007847245,0.12129770922223503,-0.6553509016152382,-1.5071018688416722,-1.0184351933633606,0.6524406704269764,0.37518181267938394,-0.9114010807252625
-1.3281860488984305,-0.34718649511226246,-0.46039233265665513,-0.7274657062336721,1.1398566043617029,-0.5629827138769333,0.7807560023881039,-0.05374118290622152,0.5540113121563981,-0.5025138290322683,-1.0140175222317533,1.7071753646821257
0.19686123586912352,0.7708022199879712,-0.027969414486982293,-1.2204142108110847,-0.08160192434705991,0.5948410212322582,-1.4284811266467767,0.06846807707050838,-1.9676462050816668,-0.20865295302311823,-2.4096331031055223,-0.3238119975841968
0.7384665799954104,-1.0538354953643456,0.27361458116570514,-0.4286022369487101,-0.5128188094563434,-0.1905372897269811,0.45058298146422965,0.7550737317968852,-0.8575884321518841,-0.9011266168092057,-0.3996643405718927,-0.07017665590093163
0.1713682811899705,0.4278143951529032,-0.6005066354139633,1.0687049801346178,-0.682632022012122,-1.1890837073451495,-0.7238175276494426,-0.45376535028420467,-2.388656282942905,-1.2392381475108456,0.04092791367631959,-1.3946633208200576
-0.11564828238824053,-1.7019022300183355,1.0692837063951832,-0.3723183535704842,0.3070275179293628,1.0362443550013984,-1.8587695564520077,0.2744750043194891,0.2590952031485265,-2.4324761624126996,0.5555265359780684,-1.3581598434827757
-0.3011036955892888,-0.5613379964422059,-0.20820525798996595,1.5654546599591121,-0.3771557828112729,0.35350801926648995,-0.9800722169135948,-0.09541274911381074,1.5736901716218077,-0.4616020915548006,0.39722441017595084,-0.6559623538321185
-1.4785219903674274,-0.32948930021798606,-0.7877224332655192,0.5488785155203335,-0.5691697776807892,-0.11929030569573905,0.02753380967865958,-0.4182707362016437,-0.5731786762622282,-1.404437613866566,0.1408273517641376,0.8856631329314649
-0.7198442083947086,1.6748596729140648,0.22629226724343637,-0.394090478980577,-0.4482872642453222,-1.571052204834725,1.3951673934928166,-1.6705772951403695,-0.7915442131196841,0.09705332808486404,1.1694708689656919,2.3405853859589527
-0.4606387709597875,-0.274802304752688,1.963552833543816,1.1600484289064086,-0.6836904851242519,-0.7448602791352117,0.9133294119466377,-0.11160030732949783,1.7845537265441862,-0.5094747513872037,-0.8726221821472027,2.605920553783361
1.0571222262189157,-2.2012434734509183,0.33516056653511783,0.4453967721142857,0.19902111276273207,2.018565712382927,-0.29369022617075313,0.7445124974025028,0.6274352503185865,-1.0855217533233876,-0.6720245046063549,-0.12324889256221185
0.3436182895684614,-1.9988889068612499,-0.3628556273736071,-0.9325593884467054,-1.412583182544061,-1.508342061880697,0.9721870698180928,-0.9337167905851166,2.38043916047016,-2.1035053965101365,2.1091745676805314,-0.356428710603241
-1.763040155362734,0.03402958634668099,-1.527461356118704,1.8588026355805152,0.3030162924749628,-0.25134927964169246,-0.3567798292390546,-0.21778386129827348,0.16080274302737832,-0.34933878737862656,-3.183769318003369,-0.9842460972189785
0.324083969394795,0.6137708557899086,-0.21941232097207036,0.2594788230864766,0.6765487604029504,-0.016335762353619776,-1.4665115847458894,-0.07048732642763517,0.2266371932341416,-1.7523840385658507,1.119031821951109,1.1146941793317842
-0.38508228041631654,0.3754558576272528,0.23492812508811559,0.018796191985491827,-0.5808791381772977,0.32047678941155466,0.02108763563267661,1.1024406317817634,1.4448295108561842,0.7061618482851154,0.5634098438427505,-0.7260490811586038
-0.6769220003059587,0.1675701058009903,-0.38758089125557005,-0.8555326699056159,1.922036939606547,-1.497170935826414,-1.5059339950067847,0.030107823856040616,-0.14862816347112628,0.25489756942832553,-0.0013835442273076896,-0.23719470932079265
0.6116762888408679,1.1622595975056669,-1.6653846382409996,1.1795382676077382,0.017621310976853315,0.1741762564046003,0.7914083074850622,0.28808737531309103,0.24719601791474932,-0.22679841055255318,0.8961706650043787,0.4969572742194117
1.030999522495951,-0.5395912207371316,-0.8505653895034339,0.5172754273613065,-1.5613429830998886,-1.6861054624716796,0.8058800890068776,-0.008656047063539419,-2.4212987370397947,1.450747259655328,0.718492679587117,0.4513381636405313
0.9312801191161986,0.8949105560268252,1.4545384608877576,0.6292381802952409,-0.28124290633667054,0.09742879619551134,-0.8799699395302623,-0.4923058249734765,1.7377038231896242,0.00982651224218834,-1.4592994002832116,-0.6105065552053671
-0.8392175232226385,-1.6320148850264173,1.434001003730461,-0.5075313435257685,0.06265614493579669,-0.6523979190095824,0.14559750682566203,-1.1344739175575103,0.39087414813768584,0.38608215849825045,-0.97392110188522,-0.09513713714677019
-0.3092123758512146,-0.9049478329380662,-0.8866391692045981,0.8341005719100684,0.4489675555702139,-0.8658692669178103,0.1360492341914411,-0.2850720974046158,-0.10737609967119621,0.6874644521900439,-0.4806818968494382,-0.5838317264989421
0.33126343140356396,-1.8070413949318163,0.6727567871994219,0.9118135935708017,-0.2574305241108466,0.8348171586675873,0.8719633817672413,0.3933593044592069,0.9073450078788112,-0.5168823517014675,-2.1212570635911003,-0.8324783131974735
0.9755451271223592,-0.27484530066979224,-1.1785727847701737,-0.6687782387811225,-1.0115702757043907,-0.2356062433638822,-1.245068253983848,0.12307636799957726,-1.18146108671505,-0.511290776748995,-0.008640706379858427,-1.0252104978476322
-0.47917423784528995,-0.04626121726634254,1.4043162819949524,-1.416990139680991,-1.0949806181122828,0.47371080490757145,0.5994875235681804,1.4795169297141542,-0.5513785580646275,0.04144692013958602,0.6375129739336752,-1.471578825612917
-0.18565897666381712,0.11410149222651991,0.24523584789423636,0.581373059338924,-0.6535992851816712,0.5068269113778173,-1.3167692510055098,0.9458520366171795,0.553335573294976,-1.3465250496228147,1.1657322783322879,0.3619157649461569
-1.1063349740060282,0.06188335288713521,0.9496414986165338,-1.5733469496057397,-0.5577753625187629,1.269953488955102,0.7771887376728707,1.240557900521476,0.0440261614115237,1.7853138458336548,0.07796969482795875,-0.24065488631835247
-1.1962066240806708,-0.927553330811728,-1.715093347182539,0.15201577783777934,-1.1349741648992573,-1.2082577416210247,1.0626974013331458,-2.0322766096512854,0.4466315318407984,0.16077814530858084,-0.7495701503493551,-1.135529084198047
0.812525822394198,-0.19024084441321568,0.6776371019248881,-0.4472451047873071,-0.7328131611036991,0.9190156625197566,-0.6695913936398925,1.5793342523839542,0.24930378417426355,-0.20094151076524527,0.22400476673544956,-1.2278870875934722
1.356240028570823,-1.4974466686057486,-0.007674063684503472,1.218665210788921,0.6594585244393549,0.016461622438046965,1.2191288665415394,0.2668115953271454,0.6305432162630155,2.08552697237257,-0.07872822033875054,-1.2435435876809655
-0.07201012158033385,1.3632289751322504,0.8519290707908426,-0.39284389076720727,1.6484126076944867,-0.3781245803695937,-1.5740329630187886,0.4089254624218011,-1.3208023617895444,-1.1014925644982552,0.7850813130675053,-0.6121516230332599
1.0035328978920242,-0.303626072898001,0.9148677980978497,1.1072729720038041,0.7554617138709632,-1.1492505191902824,1.0995834452105484,0.8960273456611808,1.2781448021721558,1.5361507237389416,-0.045381350768805284,1.125671663737768
0.36163602504763415,-0.4888861190436912,0.06578468947474944,-0.5142094443630262,1.3058610861868123,0.6065908615428617,1.4384562381626407,0.021317308413626567,-0.483886254119228,0.8132937997809931,0.889455402301403,-0.681282298816752
-0.6451197546051243,1.5889403284440828,-0.6008296390959147,0.999991005059611,0.9741184682336981,-0.9222245213338853,0.34581519415153167,-1.070380547503318,0.057732462515474814,1.1170294883627985,-0.26142102482932733,0.5576369254873667
0.36139560550841393,-1.2422465335492292,0.7796961821794943,2.0603415438368318,0.8331303283983444,0.517806586977143,-0.19552578102936102,1.4474076331296724,-0.6007757755261639,-0.17554987460042074,1.2902264861784574,1.5605442129619929
1.5380365664659692,-1.125587114031969,-0.06015449940512768,-1.0680471383662404,-0.33779626305732835,1.9278307729671322,0.312419820099923,-0.768222060123887,-0.2874052207529613,0.05586532144432558,0.1775444915238775,0.16847541858996823
-0.03582603910995154,-1.0962203248685651,-0.8727849535276425,0.29203572173090797,0.14091087838694719,0.9799770403593283,-0.6037583687311271,-0.9857173794825126,0.22909393606207865,-0.34329331807607655,-0.5978874623118777,-0.7648465839916058
1.5646436558140062,-0.0678713816994819,-0.9201522314576858,2.748782415910065,-0.4206193424560216,1.391434325150649,2.624626679162744,-0.23430091500583808,0.7351687140565715,0.99634220813059,-0.33313518701808686,-0.0894924963341311
-2.6197451040897444,0.4316316296375973,-1.4771644163123816,0.06658882690292169,-0.219107162333627,-0.7190047772250318,-0.5865312904342913,-0.3860039345465349,0.9012310861943775,0.39173568964366073,0.7270427689468314,-0.04334349465429186
0.8219025043752238,0.7396754681178337,-0.5102911595630633,0.061788270229648265,0.06816710038658609,0.762733046131995,1.3174011696573185,0.003806834228125691,0.4325112858277171,-0.558485160641208,-1.2707247376033703,1.7276293452559706
0.08704706823817122,2.571995317494969,1.1026920460743783,0.7884989473510197,0.7135661515790268,-1.1442149551363905,-0.7412274174241421,-0.09820827963886006,-0.5957951106877549,-0.5125583402954741,-0.12954438997943823,-1.73239134531811
-0.29900735046586746,-2.2494324542007638,0.17782979970543425,0.04108086409475417,0.4233233815151238,-0.23348290257461402,1.5968082795036493,1.3471297675692413,0.36944644762158957,-0.01481297335856981,1.0692062941371632,1.1156158687348625
0.0917607765355023,0.6087355891244169,-0.5297677059230407,-1.7072259945705526,-0.1618292630143563,1.74127205621912,2.0123285817551695,0.45932259905221073,0.2402893465977269,-0.3322834429767151,0.5168851162889265,-1.7430431839045548
-1.9875689146008928,-0.5571305725722312,0.8048559381800797,1.1322873748389386,0.05553874089166623,-0.6078422064264841,0.38599081101934346,-0.8577969791329284,0.05906511524850986,1.441772856258756,-1.1508118443557216,0.8116637964760927
-0.21967188783751193,-0.5864151488887734,-0.8324766217233888,-2.0029484138651927,0.4334636741935265,1.1113561841730932,0.2866572685671504,-0.720504258457595,0.5342233059567563,0.8082150169347329,0.31124051723627877,-0.4093156519461447
0.3571125715117464,-0.6197721282538776,0.09535027433277855,-0.4167916511383418,0.667394438057835,1.015646732999715,-0.9565790247845786,-0.38818864765808114,-1.2757575700828463,0.8061119297029596,-1.3420047109359414,1.8258634067898953
1.477894044741516,-0.9087696708079733,-0.17963037272551532,1.2074257491566482,-1.5189951632572025,1.074741250220838,-1.0756676095682847,-0.3842010047704921,-2.026919930370668,0.23391719847305223,0.1865416931702121,0.6736995542024474
-0.5182702182736474,1.6845248346034518,0.7791306255883522,-0.35654242864278574,-1.077388963898937,-1.2670019761212727,0.2979146051656283,-0.5147441368134572,1.189999221488613,-0.8265058115593552,1.3798477183550306,0.5734884202198154
-0.8084936028931876,0.8422973270139027,-1.5772283709195007,-0.6936964924644041,1.1073105339393423,0.5252009660156798,1.4581924771811208,-1.1017420180435937,-0.13137379011622186,0.6961075536701157,0.07340013247375586,-0.9417983636204044
-0.5017570435845365,0.023195978557374822,-0.8501977458146558,0.8792639051665606,-0.06086956993105802,-0.1565985659168632,-0.5482024891490305,0.2904021374361527,0.41592850878397386,-2.098182585294138,-1.1319117977395146,1.8052884845392225
0.9154021177020741,1.3510157524870003,-1.6382456590945336,-0.8511147868343866,-0.4240765933669789,1.0884968575291116,2.207929217794186,-0.4556045025388133,-0.8675656669254496,0.1740552002440338,-0.19098942037609534,2.8150681556776593
0.32875110965968446,-1.5125289652988756,-0.25959672180927,-1.2222257195919537,-0.2634994729260388,-1.6550003997268452,-0.610145939629838,-0.9518014590450429,1.2622242120021325,-0.8121189327524032,0.1944672872698082,2.0114494269241274
-0.5297602037670388,-1.3307051313309262,1.2114275036324305,0.2745139874932834,-0.2637053055765539,0.3677878890656031,0.22939194074997077,0.4854751950926902,0.35007921721565816,-0.8891168604365428,1.092105399084367,-1.0031030858268262
0.5132674331133561,-2.1779677321946878,-0.5054472096535272,-0.18292329841259092,0.5579377815243737,0.22637520284006693,0.23201646640365564,0.8478219987732908,-0.17951759745279164,-0.4633341557691185,1.083128313540104,-0.18987434796855732
0.09707754934804039,-0.6994145401232875,-0.5106839381956507,-1.243673114188842,-1.108016393980767,-1.9901167372489352,-0.10153437523551705,-0.24563709780022788,0.28579171635728673,-0.08393685566825931,-1.089236671018608,-1.1885540589610062
0.9686449905328892,0.1616985267047529,0.8717244241841364,0.63695253999487,0.024777746496761215,-0.8854203560949772,-2.04382751632623,1.7814863645185157,-1.7417006056444133,-0.023415622132823954,-0.3240881948741104,-0.6095206076219783
-0.7020530938773524,0.10285857793233408,1.0685495584552998,0.4644876055772338,0.24611772945040425,-1.830152213116851,-0.619073100430896,2.215520699031174,0.3731289973656975,0.7902381527811213,0.39366861086644633,0.2835200198850554
-0.3276621465977682,0.14934191105988046,-0.08857106726878992,-0.35975501660563197,0.3962679165655031,-0.7263553019229068,0.19963929230287222,0.4968901533612756,1.4868271983157422,-0.17388478006508987,-0.6047690426952168,0.729637707174896
-0.39210815313215763,-1.4110568310660818,0.6847148540498922,-0.2913320061249465,0.22286399621029307,0.5492170846651478,-0.09598509598021387,-0.468810719194351,0.31527928189723453,-0.10173353533375944,0.4983832147046584,0.5330812000707575
-1.4635149481321186,0.803154742614022,-1.0769545408779464,0.47039274200915654,0.5159062303140283,0.1953655756486076,0.6362026594027826,0.2689535543767578,0.1861430095173677,-1.3956127962365588,-1.3480310714079822,-1.7207934791737658
0.29612027706457605,0.23962751823899794,1.3779743339254138,1.1903614197520662,-0.5726961510583128,0.16940008059354883,0.7568359119918517,-1.2244430652472726,-0.3170312356875866,-1.2653881211962996,0.2614042357322235,-0.036355068636695
0.26105527217988933,0.7330542814659985,2.1487062939370514,-0.28279321010932484,-0.9418027323249555,-1.0397481089313825,-0.24007846117890985,-0.8718636075653284,1.0827616149953254,0.2870690437124435,1.0273209612054017,0.5175722141456192
0.00511345664246089,-1.8927621775900518,0.5212157911887249,0.6546884930081445,2.4570044432505136,1.1204504915105322,-0.9624303723154463,-1.6826891384009004,1.231009310580642,0.6306683813991212,0.05395042238292388,0.9486564101482088
-0.23458713337514692,0.31149085879778987,-2.0843316213428005,0.5652002170845991,-0.30126468457423644,-0.018819678361340055,1.5483177053834132,-0.6284649825014651,-0.43194403490172195,-0.2604718751969018,0.17573976529600135,0.4281677275114611
-1.4153707420504142,-1.187765239917527,-0.5582302623977843,0.8793072927089763,-0.18445447065456805,0.033703812257508486,-1.355462330515652,-1.232520250191225,0.35864685803978263,0.932957966149372,0.8443085363628038,0.48865779633412953
-0.42064532276535904,-0.39732325255136186,0.6128253216693214,0.039309198743465314,0.6778400977178844,0.9403995689461305,-0.5953072234321486,0.624056731915687,0.23221443642071832,-1.407891920909461,-0.4441040625264002,-0.2381309569773737
-0.3427145165267695,0.5343648986363834,-0.4214829971663628,-0.9123255140663579,1.5960892921942411,-0.9913457476925386,-0.8499599239738012,-0.7491585255903087,0.4017711724569505,0.3985387227970714,0.6220347333007304,0.27186819544103724
-0.8022772692216189,0.09109360625591317,1.2721985542500975,-0.4624991531999693,-0.5445281169346958,0.22854776987192307,0.7464576218021075,0.27662129151658,-0.7727253056127028,-0.8517776058894487,-0.030560602781942576,2.5846049346615008
-0.16128571166600914,-0.8515399797793188,0.5881572644358652,0.34285346578164794,-0.9988152681895256,0.4234624916014198,1.3170219744805909,0.7479064407234323,1.1427764251333439,-0.9307501685249376,-0.9080910268556021,1.2069286615501689
0.4040508568145384,0.006273156184418285,-0.7064755007657966,1.818464378381593,-1.2421533507916103,-0.5455681502938481,-0.1736933755109449,1.1713424115085216,0.5652184478220728,-0.76491592408481,0.9023123560677843,0.3647403321890527
1.8861859012105302,-1.531535315243643,0.032264810771252796,-0.48401962319627845,1.5931062215029255,0.6523733807597761,0.22977676033491254,-0.35342454131103057,1.202405356974703,-0.08076556887905209,1.4009250269832618,0.7287220903769941
0.17457781283183896,1.150267395898296,-0.8938332206390901,0.8047874435273991,-1.0381069864610342,0.4771231706295671,0.42877182098914957,0.31063749893979387,-1.1153438708087038,0.438896929523789,1.1585219474511832,0.07586089783027819
0.25755039072276437,-0.20528401949625125,-0.1825848784124418,-0.32805645067676004,-0.027555936515566763,-0.10117671227742496,1.804004098588861,0.3425015005635049,-1.056586574426533,0.36297920901534775,0.9022555488660687,0.07098938090210553
-0.07444591576616721,1.118549944255326,-0.5545932404325518,0.11046875588613572,-0.977284832042969,-0.13215089013486142,-1.7735734422131775,1.2720913815221815,2.0593949894594332,-0.29048218393752273,0.5106471913290422,0.9504338832348709
-1.9187712152990415,-0.526531687096043,1.1747618002330382,1.5153967492635925,-1.4483559179583039,0.5235476578713052,0.7442218991269286,0.783558079083946,1.1471292902715273,0.6322673424230683,0.36294667819464804,-0.5989487894573937
-0.026513875449216878,-0.5235759884065829,2.116012056830995,0.7642925814204332,-0.292375353093686,0.7884710400131903,0.3765247479395033,1.3033449887867108,-0.8150876532577804,1.6867413933500095,-0.09381999538286273,-0.12946141053091176
0.06023020994102644,-0.7641867866378464,-1.431188333235752,-1.2412992727409569,-0.9377866663411604,0.06289991740664033,-0.3708395252458204,-1.6646514582806153,0.868152611213691,-0.11941120145103974,-0.6626219423891937,-1.370102323691935
2.463242112485286,0.8761739316930753,-1.9232162862097522,-0.5724750238115909,-0.6916284254233128,1.1201894604068467,0.3262267357202956,-0.6642710100718509,-0.46581422247538096,0.09479577376104349,-2.065894690250761,0.7762610170386476
-0.19236096478112252,-0.7094311573284758,-0.2451724218513857,1.2562213444413588,2.0061050974174037,0.6585259624305833,0.7408289758299179,1.0318168342239267,-1.6987095258969143,-0.6117299783135902,-1.5673577246608261,1.069603378187046
0.30154734233361247,0.6445954324151765,-1.5184156988286825,0.14187804262849532,0.42489610417240287,-1.788463949726815,0.5831627124828029,0.580701836897825,-2.100250563623615,-0.3919585407672948,0.014577521940798985,0.6030807870655177
-0.03471176970524331,-0.38245239766929023,0.04621160367091715,-1.1488401196158635,0.9314695195539889,-1.4048966975421424,2.1585006059162986,-0.12504554572252996,-0.021988835915354134,1.248347265348947,-1.2763929955947213,-0.23428576644702068
-1.168678037619532,-1.9759632998916197,0.7489361138059267,-0.8189524449737209,0.8246595628492529,1.1822352190216612,0.12748158779368524,-0.4740498833600123,1.5608011568300915,1.2586582184231674,0.41409248921239733,-0.04416006784355244
1.1428228145150205,-0.5703140677864661,1.494141897266825,0.7034935227111718,-0.1008609230790248,-0.24677313147089774,0.02690518329032648,0.7886845446289292,1.5213880962858193,-0.20106747907086636,1.7473885375460778,0.14690558059005346
0.7519330326867741,-1.1791082143628482,0.20139455871528109,0.9944102812176302,-0.4397183593776238,0.16417582279747392,-0.1812987856697749,-1.9795770714391225,1.2601449549685635,0.49025166608774173,-3.2253061889938373,1.0948976495261125
0.7910319470430469,0.03390272368233751,-0.193155224849579,0.017855301482174405,0.24893461186111668,1.1392905176591448,0.5529788371458881,0.7921911853127348,0.8300111065493102,0.9204572873590808,-0.9724953489823664,1.0364464760032859
-0.9093874547947389,-1.1904077356744902,-1.9783849165730842,2.475313800936102,0.16845076993249436,-0.00641121737184105,-0.03205826148594767,0.09068826604081519,0.31736466041214256,-0.446517038751057,2.185878608855743,-1.43471177610059
1.4027943109360992,0.9259751007146168,0.026185149185798437,0.8241523634556386,-0.5688054171653081,0.03726760958934886,0.0132091450647669,-0.48883951759226496,1.1519640893455976,-1.3059082511945022,0.8342249512035418,-0.8782306796617471
-1.4018510627922809,-0.09107586035302723,0.07128726054946169,-0.2434810696329004,0.12984783046686063,-0.868729232791729,0.017829860006256772,0.5024409019031453,-2.010886352574182,0.689308949758022,-0.11166570052663263,0.43445051849216787
0.5868570938002703,-0.17759599475873897,0.6389568142127453,-0.8157060480993442,-0.706329706696292,0.3699945072275205,-0.1346085694900931,-0.3860490822851164,0.9897879189038835,0.8963876161298779,-0.531889694553055,-1.338491292718374
2.1904556258099785,0.6558921377875826,-0.7084881015290911,-0.9748843046390414,-0.17145793064083975,0.5865122189668235,-0.6086728021524077,0.029018734725870104,-1.1210051587005592,0.7492788001422659,0.5858143826888129,0.9186367245357779
-0.9905363251306883,0.9639069340758625,-0.4350526002358597,0.3354213204803695,-0.335283474517337,-0.5778818370028561,0.41810653819691085,-0.04624580089035779,-0.9127230524499315,-0.37414882410938,0.9792048960022195,-0.2753608954681763
-0.5662977296027719,-0.020098751769651646,-1.4780022553041843,-0.48877704491340684,-1.2688725926057791,-0.9220213783058668,-0.28504756501661865,0.744529923983464,0.6958521595532422,1.5231108714090031,-1.2693874584567753,0.7071841636216737
0.09965136508764122,-0.7712002995492906,-2.2912928068840652,1.6737437539834248,-2.35115821311217,2.6262892551952284,0.6136795028204439,0.15918182118326307,0.9287306868470748,0.2842647584534597,1.4917946923253733,0.03420977909036857
-0.5034756541161992,-1.7739696161121294,-1.1084970907967833,1.4663118029178595,-0.9390632499396991,-0.09290846984828297,0.11076762892799707,-1.909119651113275,-0.6097084255868115,-1.1475895682470094,0.39846259753549684,-0.09874954664854692
-1.5506634310661327,-0.68604975703518,-1.5703258142530165,0.6330665474972272,1.804104664586301,-0.6836923396092914,-0.3865748763290467,-1.3920938025032232,0.646192960752218,-1.5960874594303902,0.9381426057423905,-1.0870533872087738
0.06856297480602733,-0.6172122466479616,0.3367122954206112,-1.1789961729568956,-0.3096817820367279,0.7065864452922617,1.5648304050350645,-1.084166203198927,0.5629319349362406,-0.2971942159548199,1.023997674548785,-0.5474489051032796
-1.0623037137261049,0.10705745299229676,-0.5181340566668573,-0.672218872552405,0.7759681608964043,-0.050794035227891964,-0.10231258554697635,0.45654466677858146,-0.3106472694456917,0.22481153010256139,0.3122708782097421,-0.115295632852192
0.4735924306351816,-0.34514688113802716,-0.5382371300747891,1.2556775257411008,-2.124445143093358,-1.0857663232621033,0.6228230145618063,0.5568524215227545,0.1538508604046973,-0.28794618306571756,0.44543088607264075,-0.14846948270904908
-0.9194242342338032,0.6879329720514281,-0.9844130461752121,-0.563066199795102,-1.0082860679643277,0.4830535716514451,-0.6999829059921012,1.6703571847542045,2.0808840480234916,1.9935623988394282,0.517748821710884,0.7242371387327261
1.5499344050175394,-0.6129832712706895,-3.2325654325124336,1.1221417339195243,-1.3544896173623504,-0.8531209690758187,-2.0255393311311796,-1.014430410967562,-0.2815680280522265,0.40398352624473366,-0.3571007987756031,-0.6427311302320848
-0.7832532923362371,-0.05704116685294176,1.5083107487475504,0.474603923034761,-0.20230001008711487,1.5764580021556338,-0.5669991676770471,1.3092529698878164,-0.2470919899268907,-0.9731487362874572,0.6484644571751289,-0.0296091596784772
-0.3220615162056756,1.1839874431968893,-1.0002705227767883,0.05171788481318731,2.4219554805352432,0.4945046297524024,-2.137448706399794,-1.9378786649767805,0.15000714288553932,-2.2703417581987244,-0.25955938410411533,1.5044693572213395
0.8135172173696698,0.3418252139549665,-0.412420069849907,-0.7028328129354411,0.4602389432279179,-0.2768804245260839,-0.23686286681924823,0.017757957491121273,-0.18295339619045456,0.23501404919982627,0.0006578567221703546,0.8215552892294972
-1.2308643164339552,-0.06003754168856451,-1.4548921652893105,-0.0942438435247516,1.6956125332780865,0.10934701802211301,1.4686470145390538,0.24520340004469413,0.7905023980843983,0.9889540896941548,1.5639106603480764,0.10485387289016318
0.22745993460412942,-0.601944441935177,0.9719303434406339,0.18964795487489794,-0.2544367276856635,0.9032881210981933,-0.9052850220766508,0.24159025656942953,1.4692439594190572,1.8637672086298276,-0.036037822085733015,-1.458056162934993
1.307142754282428,-0.6332313967149771,0.14342893703732443,1.0325388983011217,1.364869373855072,0.18596125356079854,-2.106043857594188,-0.3095955177570466,-0.24666873913289608,-0.20241174628443354,0.41350805021403414,-1.373691731766982
-1.6074832345612275,-0.8506132529519478,-0.8263652852658686,-0.8857356006337547,2.0732567066828906,2.1221094572335484,1.5002569910125267,0.11789559186044887,-0.8567851444315063,1.7219991047581589,-0.17477481987660617,0.6373841539603116
0.1846338585323042,-0.5410068657828994,-0.39222961134402384,-0.26281684252611515,-0.10936906641045824,1.1358675163955245,-0.47535476332425175,-1.2352195706352989,1.9749079430110053,-1.3589276392183158,-0.36582657633374294,0.7398040490178731
0.25988279424842353,0.7556658387443146,1.67817992212487,0.04482313193228475,-0.5392647112273649,0.4876073675611219,-0.01573838216868779,0.8651614867964222,0.11980947625388168,-0.34390804598608904,1.9287120481484403,-1.945038331493559
0.7818228717773104,-0.2218882712922687,-0.07296943188127829,0.6626783576861647,-1.3178109369901527,-0.9369858735084841,0.7882799691310772,0.2497904334534407,-1.704527742401332,-1.014397454157113,-1.4644182463060453,0.6997876350774045
-1.236950710878082,-1.349773069381231,-0.18173353761590585,-0.9084643375227769,-0.3090602585769696,-0.14688810390199103,0.5231727649891493,0.36223341348186877,1.8622741276968993,0.792100908750765,0.05210372123202869,-0.5621152257790082
-1.3204566130842763,1.7681692930597834,-0.9413814861392652,-1.316569792887215,0.08189667520079116,0.47887497005245266,0.750512419611869,-0.279016461554081,1.1261876656545682,-1.3010773798518223,-1.2018186836771196,-0.4053653298292661
0.5219415656168976,0.31996519114516303,-1.894581150472303,0.6739651517100497,2.030953617349149,-0.8228614157581384,0.9004289895454238,-0.3279796247488339,1.6013425227117817,0.4017496245846287,1.2543929804996743,0.8889025402882418
0.29698467323318606,-1.4069434005131694,-0.16003867357934443,-1.5179491149467033,-1.2949739740960864,1.2934268749629496,-1.7461146325894545,0.524730894165268,1.4342475240559143,-1.241829371431121,-0.06157976455470421,0.7323634098241499
0.25049285034587654,-0.44184892724082386,0.32548511232461763,1.2849797147621682,0.05966189369697816,-0.9741573417780406,-1.4143477401400193,1.5899738499574083,2.6449880621273762,1.7577815530513796,-0.46881297045934334,-0.09871509085698725
0.3464482094969757,0.11088638282841785,1.0995844643276695,-0.15592609748290798,-1.814308121389617,-0.6372256980459021,1.171169662628841,-1.3936310905992289,-1.036936702357817,-0.3742560375267909,-1.8350116481203478,0.6882149908441623
-0.6800247215784908,1.704592093297377,-2.2484965344996555,-1.5475310822744464,-0.42676282883856803,-0.5622991848948815,-0.7817391430916868,-1.4440701747938907,-0.7956480747046643,0.37796584915246,1.576278858599338,-0.36351406489101956
0.23225369716100355,-1.1081124582588693,-1.125096327023029,-0.4804202194034942,0.31139535741201874,0.743824460633133,-0.6726458449635592,0.26620531238892353,-0.49226368008945176,-1.7887726227323555,-1.3278052129144733,-0.7898187008318348
0.29307247329868125,0.9760407193559466,-0.5807410905564503,0.3791236330692372,0.512583152688558,-0.804936367170773,-1.262842522164318,-0.33220008635431714,-0.5208462064456516,-1.4948022150871882,0.4867583971560609,1.2599466808979263
-0.7143514180263678,1.399486426972343,-0.0034808485732018284,-0.5327010875549777,0.5890230796419218,-1.799976570419055,-0.40494788934748205,0.1241057716724938,0.12295118206319502,-0.7733964705152477,0.9317786174855869,1.3257699440065525
1.8657745111447566,-0.6286543050745702,-0.14503369152842244,0.020029748824347503,0.3974040328868454,1.0880388357617128,-0.34931606368447105,-0.023789314599339306,-0.48989870365858507,0.8505181277692229,2.1738972796282092,-0.6435598973500168
0.4738329209117875,-0.27751361886023346,-0.12168868568726955,0.7400783657052865,0.580421940096241,-0.4443862851055618,-0.9374606876851576,0.6220093678536937,-1.1895506021640943,0.6590904861935541,-0.5512592413750719,-0.5337678916842692
-1.1913034972026486,-1.0363092473737703,0.4080960585699445,-0.20219033538761957,0.04573912900266335,-1.068507632151937,-1.0530827448757445,-0.2861634302199443,-0.874437523460837,1.085389961099943,-0.8554835806010738,0.8913227193483803
0.6565536086338297,-0.20346114108030489,-0.9032931107791092,-0.9370576764661336,-1.0478663059889717,-0.7548585532025398,0.3186630921757059,-1.2082117898992677,-0.2937530847952909,-1.5097308231844209,-0.42727536944081734,-0.6934715638871679
-0.9746816702273214,-0.03658997434293117,0.9341414422336946,-0.298983997371841,-1.8516569636800562,1.7167627491843505,-0.8076692668884292,-0.7898539610919716,1.1443004507407473,0.5068693732713246,-0.5883410707384071,0.8008125795742111
0.787084603742452,0.6596499980823705,0.4334524416994807,1.41484013645926,-0.5466878217372169,-0.6570436972729109,-0.6063122569782615,-0.16045165489449617,-0.5753101926521016,-0.5598974677675107,-1.8836180385338321,-1.0244482512644213
1.158595579007404,1.0901834710204468,-0.31983226412807936,1.685064345333184,-0.1346154330632297,-0.12336810537690149,-2.1862783467740807,-1.2549704688713978,0.8099678190555669,-0.8081043364823255,1.6354517349649877,-0.28664058613920634
-0.8206823183517105,-0.7480960646216471,1.6009079918889153,-2.019926173942275,1.2539317971754804,-0.4469183622860159,1.9382002425310245,-0.03685390675098414,-1.3212789237386746,-0.5372276641222128,-0.4180502999830672,0.9785864438298766
0.9633761292443218,-1.9673250642259945,1.5564160355717669,1.091027909191477,-0.10060167515618698,-1.2326625434337566,0.9418240294747006,0.060754655714501685,-3.198897679883344,-0.11646779406706512,-0.15967449217735546,-0.9690625750621518
0.4127809269364983,-0.021244779276242128,0.9328953551938086,0.25014771603535624,-0.1965690342166925,-0.7427185622469634,-0.494806053326942,-0.3578035998711483,-0.133175097322474,0.6610444159677312,0.6274572142343657,-0.5879251445151727
0.82206015999449,0.2935375299686405,-3.0185567705677925,0.9239826791201501,0.38552712684177964,-1.3011084070064949,-0.8990809356577203,0.20922213379179402,-0.6100087314618395,1.1228053008888783,1.386095817929748,0.37625142615150303
1.8967929826539474,0.24941768768504166,1.5789450927179753,-0.5504882602676295,-0.2700119874512021,0.955881275680714,0.01088879723312497,-1.6142785808623101,-0.8817371974049332,0.5210721283410551,-1.160566672566252,-1.7981890046962754
-0.2453881160028705,-0.326673247509044,0.7947585224719341,-1.768263509501486,0.8105419989469383,0.10087906461359576,-0.01653358959765406,-0.9531843385632386,-0.9988502714280443,0.6332707362208657,0.35761913769898324,0.07285819162430503
-0.7537361643574896,0.1247520996639345,2.0064086377129366,0.5844887886474618,1.9793336183838781,2.4826777621743212,-1.2759665695146472,-1.1426988863036047,-0.7075151471829944,1.8230495479796065,-1.2157844986207407,1.1612378851687306
-0.8895144296255233,1.5154448083522476,1.2374645917335385,-0.940977261282717,2.1907855142107007,-0.7089107249905889,-2.55053622892236,0.8798567379474236,-0.9873499315107304,0.6970730916065615,0.333648345547148,0.8647994903147556
-0.8158102849654383,0.3817341689625093,1.5783426774972855,-1.3882924314848524,0.09704062724448921,-0.8588602461456193,-0.5260759075166689,2.3061640025806343,-0.8967360482991753,-0.2138348314924301,0.29221412643212563,-0.04962957295555029
-0.0771017094141042,-0.3733684250030844,0.878654850180379,-1.3184013824734664,0.33689236469544814,1.5337597683553283,-1.5633745308995133,-0.8808195799722746,-1.3588473515883237,0.5811047348180731,-0.47301202909485857,0.020627610380529664
0.3411519748166439,-0.5001978170959958,1.3486931986455122,0.6009137824153344,1.5788561203734834,1.0579770320681345,0.17137994672354182,-0.23524223696743682,-2.1294006311249833,1.707645904228449,0.23345552448619367,1.4918104332045574
0.27669079933001905,-0.16985235767773066,1.9941237407344399,0.13945246602919717,-0.14996202289627097,0.384765021771022,0.17808156666067446,-0.6934292426154812,-2.2094074881416286,-0.8703606653032362,0.25178735867218116,1.370580212987706
0.8271832490360238,1.6367399618306397,0.21655473837820582,0.7824660218746737,0.6791921419241791,-1.1136915150882716,-0.9732126983419084,0.22122524080794348,2.4610891318361072,-0.43093695834333684,-0.08167885942046323,-0.09459006928688767
0.01300189187790702,-0.1833007095261973,-1.5722305440781297,0.6690752544963648,-1.1351601296858251,1.744996267727934,-0.534584267655453,-0.6084086494201553,-0.06324679113395633,1.4501277493492843,-0.20459905314313978,-0.6296340375295201
1.4535340771573169,-0.01979434452070797,-0.30746090001514215,-0.42093356458376585,-0.31083914827499803,-0.07210315977034798,1.7630416919780836,0.28277987674718724,1.5245424463041863,-0.2904729174305014,-1.364373041685712,0.8572939692167928
-0.2646568332379561,-0.48231357093630295,0.3899455993834367,-0.07047357387745573,1.1561146166453071,-0.43067512849503575,0.7751285262709626,0.6650266167215868,-0.1775911286225892,0.764289675174453,-1.0907151579617478,1.1305620326182344
2.720169166589619,1.0989833574419647,0.07488758437155775,-0.5114375287825396,-0.7181956337876233,1.1429597369182798,-0.45225277070890396,-1.2238249378907575,-0.14427655844643128,1.2890872569979857,-0.6142249450730328,1.3787339108910013
0.6256673477650062,1.959837254744675,-1.2465619661594265,-0.21032777286549081,-0.12805117872967775,-0.02229512125372992,2.291959326935979,0.2715143155249684,0.3066706241324424,-1.2558204789727079,-1.008677960332767,0.5836066223403202
-0.8571575564162826,0.4506130494313883,-1.631067625194979,-0.967254737981066,-1.5742096456021195,-1.1656700856318827,-1.1969374119716447,-1.7940560232190466,0.6400706481446907,-0.408422610790407,-0.5732881312967641,-0.3561175489255973
-1.0708924980611123,0.08277290378542575,-0.7411626686348293,0.3904842938743351,2.005768294509637,0.04030259949858179,-0.8126947248165548,-0.25653396444045323,-1.2466694529200482,1.204689284039352,-0.07615671051650283,-1.6699238210961345
0.4824724152431853,0.03678283317423478,0.807739555984151,1.0751207489817565,1.2630280698169032,-0.7813488015707639,-0.11051417070792717,-0.3236804254807696,-0.37977484709821935,-0.1264265990077907,0.0882499824033175,1.9382689824405028
-0.2234627853258509,-2.3843067887857456,1.5803397708229694,-0.8166130298209866,0.18809956615274828,-3.0093411426831738,-1.5310070653763155,-0.22913705051509212,0.3047817614862265,-2.0185924919436133,0.5616777087233012,1.602833287487116
0.714000494092092,0.7451508642848174,0.9165676137777012,1.2812696454013426,0.5075128720823281,-0.881710192150132,1.7903091646278466,-0.31206045639121544,-1.9335257391199918,-0.5099697730421181,0.15688346379868284,-0.7669904061894642
0.47323762457354485,0.13416641599584353,1.0574272871141361,0.11352149647794171,0.39589810694336847,-0.5277355708678508,0.18315203870928057,-0.4949271205663885,1.2973383209029559,0.7944624548454314,0.11900792548729246,0.19068947505273745
-0.07282891265687277,0.42834205066072495,-0.08081557316355767,0.24107897640581327,1.3843117530307858,-1.155645109293048,-0.7899488568997947,-0.2657821783948851,1.062757417742613,1.2764930996057793,0.5364063202304481,-0.22077930993622547
-0.846793718068405,-0.7114621940837048,-1.742082457705964,-1.6994295196075182,-0.5188000423713724,0.5752465321140376,0.44778695140476144,0.23813769177684987,-2.1017763804397136,0.050845298614804114,-0.9168878701558746,0.06622224698560479
-1.5148472246858646,-0.38445687897709163,-0.4552205808827054,-1.807262309565734,0.7322676199282319,-0.7774477573287817,0.1460558482978913,0.2662572073877487,-0.8790004751617958,0.48378160830999745,-0.8332444476420678,-0.4003742590734307
-0.4465149520670211,-0.411024936503173,-0.25876441187237875,0.14411636277968193,1.0774164988521733,0.47842620083445625,-0.3046510841258466,0.1151993446996325,0.10484974159382826,-0.36906012620263673,-0.3732109344538801,0.6915237579169574
0.8563987943234723,1.0216229840730389,-0.49705248683568226,0.7897321246320076,1.215325970476457,-1.2333197363683148,-1.2085151668214802,-0.5735974236464758,0.8418423100043253,0.9031842135383261,-0.6972039778647355,-1.1340616883388548
0.21409374413020396,-0.3787598366030933,0.05469486537462616,-0.6713804436449524,-2.2593708838316977,0.9092189210825384,-1.436211925529107,1.0803366482547827,1.52612719620729,1.4251955572098265,-1.7530695679706172,-0.39385901821112906
-1.245738778711988,2.0826603221097977,0.4414197598929505,1.6700939005830893,-0.5992744782651446,-1.2764825266664916,2.1868009974432265,1.5253550836582002,-0.6373413732148533,0.768199900254481,0.5759867954943182,0.8735165303215324
0.173180925851182,0.4308624190150374,0.8530151882434975,0.7349359742543154,-1.019170621301904,-2.341530409391073,-1.3527348851099972,-1.2884143150452518,2.338170675807456,-0.11816674651273366,-0.9983182659361296,-1.9735226413673403
0.3853173797288368,-1.2756826599957316,-0.27811986436633407,-0.9083412517079852,0.1495882855706858,1.2372625851632273,1.6979655193513756,0.16426915594992011,-0.048759324465583884,0.4341110652414831,1.8116063049350655,0.3085314861648831
-0.883857436201133,-0.12854629325195685,-1.9037594056445934,0.030848667053507126,-2.0160302195142723,-0.8558938037311713,-0.8447591476159557,-0.4681419325244925,-0.22412790224099816,0.9524879011371168,0.16536764772254423,-0.5477884679056295
0.1537251059455279,-0.6516751221564157,-0.4828777192911349,2.476929133723412,-2.045622890945603,1.7569290581994084,0.7900325675403224,0.9255980528949994,0.5617247539155873,0.02770168787918344,-1.5017257732909,1.615356398969254
0.058208718445999896,-2.1943824698200243,0.04371039699198385,-1.2425640027997056,2.17009499187626,0.5645919012080699,0.46543309008077954,-0.012594201208507957,0.31079051669676594,0.8005290161606844,0.6669333194854921,0.32909789910247844
-1.142970297830623,1.5994709401137894,1.2228079221334083,0.5282699389151054,0.6176893882633404,0.7902633183812532,0.6654187002964168,0.05317794790313622,0.25488387489318903,0.3703089775637704,0.033277763324764946,-0.7870371507227718
0.3577873603482833,0.7031425422200039,-0.5678078421841054,-0.3227445527233424,0.12100924319881162,1.0454725004660728,0.7320142722401903,0.4949678233914439,1.9961611416089302,1.4193578030127094,0.29098125819472476,1.452035555129091
0.5607845263682344,0.5332073178993125,0.5125436283994018,0.7068962909185121,0.3636726478389822,0.11267934624906932,-1.6115656223375108,-0.2975389585302558,0.2473706085755718,0.7001376460626499,-0.4975664313884472,0.021777645797310893
1.083051243175277,0.16540366029970424,0.29008789963543236,1.2672736463183818,0.14634092374917987,0.12405541783853893,-0.676345992474177,1.677481077398,-0.9842742800388183,-0.4985573968398187,-0.931245783262877,0.13125725079840084
1.053802052034903,-1.3820175686924376,0.043900533123388444,-0.3862370887113674,0.9973506565515259,1.2813400241943087,-1.3680479592177142,0.5097397283165505,-0.8397548856504133,1.404494009881228,-1.4612706527456658,0.8872885743768684
-1.377669367957091,-0.4836171395554367,0.9305333193245915,1.1189122717071738,-0.6324441920639787,0.11135849569809807,0.18930106084759718,0.9316074949748296,1.472624682026792,0.4600551922438172,-1.282001113971562,-0.6057753799793864
-0.9378250399151228,0.8417807747840127,-0.6608411967525808,2.221203394271961,0.18661482607356927,-0.7281768467966099,-1.3233443321242262,-0.2205555959641318,0.6838291539371072,-0.13973593879280324,-1.3680998354089975,1.447286394814131
0.5150352672086598,-1.0512200297825027,-0.5751864496435164,0.06627473734423478,0.22742126793771542,0.5857585601622237,-1.9810471770732212,-0.12285566158593705,-1.5563489611406067,-1.3540036929925754,-0.3574010262409019,0.5770651574248825
0.5137859509122088,-2.5317693162508137,-0.011900823094228097,0.7848886874941853,-1.0468579584583377,-2.1136434143849523,-0.23747733654357459,0.8116248595640048,-1.605525230306439,0.231378929058169,-0.051607325873054215,-0.6412640669616876
0.5150476863060479,-0.22710600778092602,-0.6401465050936997,-0.5904407702032749,1.2769830590630524,1.3195588015602135,-2.209079052487446,0.7111822682595856,0.02505455113290388,1.834888894409564,-1.547080295022394,-0.4324413220195655
3.852731490654721,-0.1417575540275386,0.5080122910545997,0.019259309031212417,-0.44567673990140944,1.3404391359650913,0.2587381947209566,-1.248668532332627,0.6164883747881819,-2.7293762500800502,0.9026778771499253,-1.2563867544318812
0.570890510693167,0.13556341641470915,-0.7131923043661328,-0.17667509270824255,1.017421669808901,1.198166668123079,-1.2576295233777415,0.12763259648281905,-0.6780476434463981,-2.6897131334542244,0.14164474550769018,0.3077242296164032
1.135565640180599,0.7285186435145362,0.2263042077451344,0.7969359256585957,0.11491272637148015,1.1597719623776943,-0.8405797480802278,0.47383794556642633,-1.680170249290361,0.7673393527779184,2.4271169708628144,-0.177777171138205
0.9540017634932023,0.6376058122312086,-0.10017276878675659,1.2046759357569254,1.633584832409058,-0.08417532534112314,-2.2804159731577003,-0.13030062499669742,-1.1251717349123078,0.23617230939780226,-0.40509878691957735,0.31270385659971434
0.651391251305798,0.2587698052439216,0.2149259647767057,-0.10965484911745936,-1.0413790885215242,-0.10668238449302246,1.650102213808546,0.3789275656833261,1.6457510973077116,0.6723837158313631,2.2329713791984322,-1.7017059820747136
-0.3152692446403456,1.1955313880867093,-0.4597413950630392,1.5336228457329233,-1.08475880151045,-1.2296400897708561,-1.4629148869780788,-0.08799424784569565,0.49697001203258384,-0.5263859284424071,0.7459851353123952,-0.5239106597591799
0.7589692204932674,-1.5189697808133147,-0.33908829452682704,1.530047441561629,-0.9056955910043086,1.7480412517110477,-0.3640012345478949,-2.2467509439556443,1.0000820633784162,-2.1417773352996803,-1.9593431376819672,-0.9821115555131456
-0.7728252145375718,0.5045818144773903,0.09600926799704997,0.8468537431799008,0.1332955505143741,-0.4850181730262778,-1.7917385924612461,-1.3108914399721663,1.1649933176355347,-0.8319850015856797,-1.190671055353129,0.4929874818292843
-0.23681860674000887,0.6265383633369425,0.20207450616131267,-0.5160265317217283,1.5414683957782052,0.3398853097518809,-0.8356678083807723,0.9749844341928189,-0.6260062077543553,1.560005301725322,0.31795076119577464,-0.601809736886934
-0.48536354782910346,-1.2395622860802396,-0.004201915391156093,-0.6118288167399027,1.5930936181652504,0.25404528295477813,1.7518217810242103,-0.24438025042233152,-0.3730350002869303,-0.4515892335278247,-1.747591250171471,0.47033823860728297
0.08187413938632256,-1.5028706086823893,1.705362356513084,-0.8123813546900387,-2.30996860043844,-1.3404191816041566,0.2974767352653478,0.18969099524243158,-0.16800538558821568,-0.44292866977959827,-0.8962566940966946,-0.5330734551179348
2.3146585666735087,-0.7459421264756013,-0.9907369187412842,0.9491660702381609,0.24970716122253878,-1.7446750241232056,-0.7236309963105796,-0.0036568029911966345,0.41668483574807097,-2.6293999934649226,-1.5923375998844918,1.6260935580289857
-1.867265192591748,-0.6615414425152919,-0.06420379495271358,-1.2117682074893643,-3.2129536105150227,0.005586620867348287,-0.034173479655463426,-0.8252982988286389,1.089504843429427,-1.8044799846453667,2.1387117958919863,0.051598716620903276
0.6862601903745135,0.7534194635024307,-1.5736290221169846,0.6768376541110072,0.7950317937850347,-0.45375611761150897,-0.5605590566866114,-0.4670784718230585,1.8698814523881473,1.110167163913629,1.098627956790487,0.9158458666475922
-1.6127158711896517,-0.6145387836910949,0.3720814786673863,-1.081109347824113,1.118169414895207,-0.08943685924333519,-0.09242057982758684,0.32894947683816733,0.8143021697351979,-0.2594280549703663,-0.33898285965116143,-0.11336450843279079
-0.47193186578943347,-0.856348518281204,-1.115246536376814,0.8235461198419735,-0.040244274692185604,1.0654156302032325,0.7438687190329611,0.4309961356971796,0.8215858416800379,0.9912018856555244,1.5124022949455542,0.9228585219432832
1.088950596967366,-0.6116337366945591,-0.27831025587657626,0.017219582730560564,0.0839815774947546,0.2249441505370227,-0.3310979899070392,2.188409470480316,1.9266308866610824,-0.7536993715630421,1.257908170311175,-0.7729997832859706
0.06428001909546277,1.1186323341542117,-0.3720643253313259,1.3336385618598274,0.07363889294023972,0.7585225407647307,0.21999147392510457,-0.47774217877761227,-0.20505876243870444,-1.4677820379896653,1.310339857876604,-0.041975645325929484
-1.0777447779293061,0.013043374376952133,0.2808911266011715,1.141454578321271,-0.7844419187412465,0.44532816217557747,0.2364954976482552,1.6706391583258917,1.1890029658884764,-0.26092358088517403,-0.5593309780526287,-0.4650421663844222
-0.7153037092599682,-0.1792510253569118,-0.5527909175451801,1.4350654120021116,0.4317057853214802,-0.31633419323983175,-0.3261456472977434,-0.8604148829005365,0.5782825101265522,-0.572953119132798,-0.30888589335885325,1.8686244202361457
0.6795977489346758,-0.11000549870105147,-0.5953056976939823,1.4608187182891128,-0.23140800165325723,-1.0018031671930638,-0.7359259896700556,0.4886001937453581,0.6149520506403946,-0.8330901761159398,-1.0965922578685692,-1.1886088396636534
-0.7303666317171367,1.2920603343265227,1.435856464085898,0.1436308339881977,0.9302917092896185,0.2647178681134684,-0.5251833566044607,0.17787261953183472,-0.21452792427399503,-0.8070093832842306,-0.11371434594829624,2.07025259451903
0.21645858958197486,-0.7491717266032418,0.28456679047452627,-1.1587930664246047,-0.11362693451922978,0.08389261934609128,0.6991852515350768,-0.12586555117518589,-1.3942326078661396,-0.1349381026313032,-0.8125575518096689,-1.3742941190120916
0.045571839903813784,1.315508290940104,-0.561050852022268,-1.0525230549973785,-0.8610231064882589,0.9151563375047472,0.7824167049754506,-0.0056584518627058955,0.34483430937361104,-0.49156862846187366,-1.0741294794752934,0.7359989597742426
-0.6516003476058171,0.21049629892150362,-0.25083367181123084,-2.0868485293159376,-1.5358646708655104,-0.15090006972249295,-1.137794331268471,-0.6226149919058904,0.3490836020637719,-0.9322683271622372,1.1315973674556363,-0.6218458401166121
2.1439440893253257,-0.16041938197534772,1.645354952270745,-1.0836658334280935,-1.8640648250557121,-0.29734154511552263,-0.2609893343880085,0.9039045554638461,-0.5754430734100653,1.8047143732832946,0.6716112165149577,0.25486483543321675
0.6339190223180112,2.5009004979342815,-0.235164878251097,0.06882365770464906,1.3125093439544353,-0.22949938378159987,-0.7529218691023348,-0.8426150405889085,-0.09673483995500969,0.45795502483189887,-0.8824138729075413,-0.17085232958990745
-2.025142586657607,-1.0556394897985963,-0.6892766231523877,-0.5596541808251622,-0.4577893528590192,-0.9187266350054458,0.7999524297161409,0.31752592031489413,-0.8818934575737774,0.1584827541152012,0.9454536897051024,-0.830467293857752
0.18645431476942764,-0.35368575956700604,-0.6849961501263927,-0.18013560440985132,0.3385741900816487,1.4469099448204576,-0.4712030397799009,0.7558583335773799,-0.8734109981422431,-0.06654540203483157,0.30881804814941766,0.08105620137334615
-0.661786464768388,-1.2324312391640002,-0.5491264809895774,0.49271541946140096,1.7832298917445188,1.1396287546157615,2.200923817571368,1.384203093387719,-0.4809634132907881,0.6656146664955179,-0.31536405219958724,-0.4171053415323536
0.852433334796224,0.9524619705361694,-0.5944977224267224,-0.304065258065758,-0.5628043312978913,-1.2130298289580468,0.21789738989705285,0.9717694688979771,-1.3284382475542742,0.5318234333634566,1.590760816042761,0.5713787310089609
-0.7925207384327007,1.689188933651679,-1.279647848349243,-1.1218288004125843,-0.6274774843811537,0.8039481419725495,1.181996454223222,0.5724294463977242,-0.5834781570243028,-1.0342791550967787,0.30538269849327965,-1.0054832933109192
-0.11473644146689901,1.669922781404639,-1.124200096946978,-0.05323366756343213,-0.1321617523553239,-1.8450050639323654,-1.014610826803366,-0.6377319631499931,0.7137346061730759,-1.5322701251274664,1.7775210089085387,0.4724735988645698
0.5049872789804571,1.2239487531460047,-0.82932037436137,-0.8984904867728449,0.029432700419992814,0.9852892331110225,0.011722149085865649,-0.7857751523064146,1.456117917333391,-2.274084584053997,0.5659046088201052,0.8641157225166685
0.8657551941701215,-0.19762046779596562,0.5915710184530977,-0.2707864969790631,1.8875513502558465,-0.6963504511076755,0.6161730983702236,-1.1385788851296799,2.075437811392035,1.7919311115446124,0.6518722780133893,-0.10824298992177468
-1.2002964070557762,-0.3652409774898465,-0.3812372872728735,1.3427769644230034,1.5658205940941132,0.3599005576782514,-1.0333002418218002,-1.2342655694267455,-0.40013337650287234,-0.445309938552059,-1.0758522288957204,-1.3228164029430582
-0.3345012358409484,-1.671169772494065,-0.20716168909404023,-0.2705053040961747,0.6208754159067472,-1.929509689541672,0.02034271181057728,-0.0014040381443431215,1.2001068239616777,0.5920595381683295,-0.557103574276266,1.732308655193479
-0.4749453111609562,2.0358735351817927,1.270088025254897,1.770957553347745,1.449413768996868,-1.1987042316779504,1.0518590322005363,-0.7274167023665219,0.336173927260473,0.20206126882228395,1.457464072478596,0.4669886776335574
-0.6533292325737119,0.4689780781484677,1.2950071499384181,1.4316359869379698,-0.17821901256785602,0.46870296724940946,-0.3274500079234857,1.199225634489599,-0.23735407953762325,0.9125587383282822,1.16193658807588,-0.7210711259461495
1.7654542402810969,-0.49195690486948307,-0.28212494313773495,-0.5793053085790432,0.29916456718847856,-0.7009081833827803,-0.8517525045726252,-0.5789615915604289,0.40220306400226313,-0.06453786311570124,-0.35833305617288386,0.4938548689161093
0.40498171096095553,1.3280568889869675,-0.630863510683409,-1.1111237664157756,-0.3015136445386949,-0.8399628703721986,1.802959455472518,0.09425583737168268,1.102125708101381,-1.3279690694292416,-1.3529374189130081,-1.6756651676480374
-1.2608839543350452,-0.9727645167600009,-0.8644303136735378,-0.05255416192019341,-1.2903683825796395,1.3958616974520976,-1.1717453016462986,-0.2646437684401718,-0.4983010746664976,-1.0371168199996268,1.6597739498876185,1.1763676003646586
0.9178619470547761,0.40662203422267407,0.6927757697082377,1.153327763396889,1.203874741793595,2.2109592112728746,0.1558906283815874,-1.4038574373841508,-0.5213203482383271,-0.3507582210036201,1.0666427390391369,2.124486702517634
2.1221561970126332,-0.17262913429083468,-0.20470723352228773,-0.4901909062286882,0.5316987339898607,0.9370139368194832,-0.7082763383368067,1.0894408315803183,-0.40978003087928505,-1.5852700788126293,-1.144425111293387,0.8240893021628483
1.0324652605511468,0.638677139880301,-0.3864948903227902,0.908090298262139,0.018073473423663822,-1.0918805717350637,-0.9368342388575521,0.695482084644993,-0.6267740475589582,-0.8543273775917434,-1.144548197180174,-1.0030631881233183
-1.5193699659540134,-0.06357353918612146,-0.8136645751375527,1.2084399891360882,-0.0024678493121753704,1.7635193328176995,0.7416570827032594,0.8105220889230482,1.1988825147900561,-1.198822426863515,1.8335521549324723,-1.989074978181728
-0.48423407286625136,-1.4509278911112242,-0.7696664090113885,-0.7740256503626058,-1.5062148709065084,-1.5614322596483823,-0.2055359116625379,0.5949466602489537,-0.7638492050792441,-0.3286867669498902,-0.5076168693786334,1.3640200392946618
1.2669111491866227,0.07557637267003782,0.32005819149324455,-0.6760510882885871,-0.9774753331527154,-0.30449145407532596,0.40588646541969775,-0.75948503499512,-0.5876151463050064,-0.4960321976698295,-0.48983477468452546,-0.14747248346439504
-0.7076694656187807,1.0488641418753621,-1.315438265887262,0.7126620321270069,0.33615317011402485,0.054777766987373216,-2.2551457211251944,-0.7400489652367772,0.3112031016073407,0.1194817528546022,-0.6805245959368336,-0.39142978100371
0.44381942814622843,-0.029216405853985244,0.9948686937879384,0.1518475496415706,-0.5291126672745058,1.9240378438387487,0.5031197819620602,0.45198764119311563,0.23032580317836493,0.8544673443562326,0.35546995797796976,1.164984109268876
0.7746340534293368,0.775115121589086,-0.5338446438149185,-0.6860615265436788,-0.21771304121749013,0.9126591375517253,-0.7205959118163332,1.5429195659842012,-0.4098500416987456,-0.24261518579317523,-1.4002753868765476,-0.590377530709306
-0.926930471578083,-1.0455294856740531,-0.14963594425179252,-0.3521804481195873,-0.10465606477910164,-0.4637576947995197,-1.8788519511582686,0.38597889784319905,1.6836213390761687,-1.5024098394124243,0.23759599274603516,0.7623194854012472
-0.05952535606180008,-0.026260793269852138,-1.3369779581405543,-0.07051955272741914,-0.6824687690171107,-0.9449562707797498,1.8847395547871757,0.9784666768509728,-0.630635812690269,-2.0483373778092178,-1.406737259703862,0.023722550312675755
-3.2412673400690726,-0.6245104550885774,-0.012365938242364536,-1.5648544249554606,-0.9679183200240504,1.0021926538032544,0.6010135264946271,-0.5258723322979134,-0.17108595727129636,0.16231780947549843,-1.399703405726604,0.24695779656091352
-1.0243876413342898,0.7469808401047098,-0.32832094269055984,0.7656431064826952,-1.6123576309253735,-0.5333589572203554,0.22727741267959795,1.0978509099699816,-1.9267505384124899,-0.6654995319284293,-1.3656348965533942,1.6292663831677023
-0.2525681513931603,0.03149156226199577,-0.05008059885646664,-0.4786921889391912,-0.1465182790115405,0.21674008786497512,1.2494188497398657,-0.41946839213477477,-0.3049977038389083,-0.15736138886388432,-1.3271746370242707,-0.4889172258073753
-1.2477831819648495,0.6900736763366125,1.4717088983618904,-2.783716223798099,0.6186085476102836,-1.3697764892591158,0.24756928138853604,0.24015927124619948,-1.3229565590850767,0.329541155152203,0.7223641770371731,-0.5803107549975925
1.6324113039316352,1.087710426157866,0.17769804579023982,-0.023870968309452716,-1.6436341422199503,0.5692578552242005,-0.7986140101436061,-0.3661610953788138,-0.9162650534578249,1.4431770138315412,0.7226911322164593,-0.20223571859793135
-1.4301413779606327,0.6916185751213884,-0.7946591841458039,-0.7415712588935076,-0.02404782509982628,0.4886951457474786,-0.17496761048237716,0.8891561736768938,-1.9558596276198235,-1.7475054868925834,-0.16270263256743916,-1.202886720598461
-0.44004448669698376,0.2731184342936442,-0.7113199105465682,1.6888221923026767,0.28114325269156065,-1.2416200616581716,-0.6783662131920524,0.9027619892851401,-0.892504326224485,-1.012457625452728,-0.631561792204981,0.9364243503459659
0.13074057728609134,-0.9982122585114053,0.5951311859137686,-0.5854450209199682,-0.9895804037291447,1.0316231128716402,-0.5003528928247095,-1.4767810801431691,-0.07506122007559204,-0.08523429395109815,1.381797534671681,0.8035394225352722
1.4412732890661155,-0.002786110666901238,1.298693290993424,-1.097643363578611,1.4221418115480882,0.5547458082427815,-1.2577036658592413,1.3252978342221797,-0.2441817716122971,-1.140193585266753,0.6948396174462641,-0.009357053095257827
-1.4358621511794394,-0.5330904020158331,0.28191802075105005,0.5079326699620159,-0.385715369038408,0.7400242527800978,-0.9700205758003195,2.3764091927591937,-0.41477203852669436,-1.4890559680155546,-1.1786857461146303,-0.9241092434497162
1.1631637521549596,-0.34406395670422657,0.6887127445547695,-0.6604473680075832,-0.1012596884565111,-0.3786786927501306,0.8945855326686752,-0.3553326830312902,-0.32490374948230094,1.3095773686822225,0.35056008058957505,-2.7451870219007297
0.010233061019587049,-0.37453415075025087,0.6097377233367051,-0.7794562012522323,-0.16126950059797882,0.17895641128644235,0.33207543880324786,-0.12680157166322228,-0.5049904126106127,-1.0479570405110468,0.2989863658478419,-0.8336804099178576
-0.9815086510479509,-0.9799255747822445,1.419064413357521,0.5095013828244059,-1.770774422591056,0.06337886886532448,-0.5030130525315085,1.2394297942401529,-0.03460352975929649,-1.3091852211566728,0.7184507987762998,-0.2311246656919125
0.46210347426327075,-1.9573385891339898,-1.9495901727260327,-1.040467307889566,1.008752071684044,-0.1481704047542305,-1.0280318644631352,0.06676745530571572,-0.11022639329117377,-1.1481494881808638,2.7490077347626656,-1.8991403640456084
0.19905969557347003,-0.6681430483277668,0.6672189393045282,-1.457273658199453,-0.9555187684192374,0.17050327816584582,-0.405396978807933,-0.0039743100330945046,0.27498052218665076,1.0859937950796388,-0.8184320753448803,2.494500221226051
-0.6002168771587947,0.19337945192415906,0.9837360439035638,1.725998002094337,-0.23652051540573635,1.2564429737963825,-1.6838498029670688,1.8969687338874128,-0.20096225046460006,-0.6953816500488362,0.5544231899879244,0.41551735996743266
0.06980208499001891,-1.3481770454274902,-1.3387237061355735,0.5794987376006449,0.5976610012779955,1.0749506387039267,0.12663059942435256,-1.354297161408027,-0.433659693556138,-1.3856160542311489,1.4960195543932873,0.5444201610999438
-0.3853135968617602,0.015682236471624342,-0.885668184006416,-0.26420928499436513,1.460903426144534,-1.1818606774688567,0.9454714819925647,-0.7889631301337289,0.7782223169374198,-0.8401619008497354,1.7182435038044368,-0.14999950589611474
0.11351734525124804,1.9002684243109647,-0.8507827486281534,-0.003477209701936022,-1.0799322818968393,0.9854018169069398,2.366972660059023,0.4178229935558582,0.6028734794337036,-0.048170661875511216,0.1805495769098697,0.7375368640461293
0.6621306745210467,1.0230565552522393,-0.7287901963773834,0.505864358116156,-0.44648358559442713,1.1911433727480356,-1.1032587225641184,-1.6195445938757005,-0.03242569174226248,0.8917709956062757,-1.307642934160056,-0.3008787545287461
1.586016816145352,1.6435415091205292,-0.48171705093552597,0.9733374496134207,1.3824186300071535,-0.15117767335236626,0.903802445950609,-0.3730091834030636,1.1951034247665773,0.8077684792261496,-1.7948966487565017,-0.16197039979925745
-1.237815498826849,0.3911278769327262,0.24260281305494147,-0.7559752913150118,0.46371387927544694,0.5084471037977766,-0.7072114456978758,-0.38216563007522664,0.08264899224409965,-0.7777690059554415,0.8264678634197106,1.40498549317653
2.1330333746562666,1.167509822986446,0.8656746511673697,0.36614652596568237,0.6711713590516084,0.49400166730301776,-1.1284562900510124,0.9617738202223154,-0.1611726440706628,-0.531124126337735,0.34252894432889386,1.0979974219894901
-1.9520877995225019,-0.7239647304677874,1.0813169577685364,-0.5067041762102386,-1.0511317357761678,-0.8499666166743012,-1.1288981288559767,0.6928530345019192,-0.06859148945490699,2.1028840709790892,0.12812857001362166,-0.010947332018192467
-0.15178509503558332,-0.6443402670219842,-0.8378230611677818,-0.1889812445126243,-0.37920952992655815,-0.38195628752832805,0.14073572642696686,-1.683227248829322,0.1651172966259204,0.9956845304814996,0.28264566459967544,2.02247401112424
0.5883172064845765,-2.7391402061374728,-0.8447029987029827,0.1606928674649046,-0.16783543238043075,0.7508102388516071,-0.9307936236932695,-0.6931233416845494,-0.9172000627865342,-0.25178019093159926,0.978515912237696,-0.08202429964971565
0.28099186773503265,1.186145474042299,1.315821840016223,-0.006678573052672211,-0.857894757342974,-0.49582223683145116,-0.6068457712934849,-0.6900562840936011,-1.8736279249021563,-2.295152440146726,0.5463434058917431,-0.5057862860187882
-0.6226995198205938,1.540323979819886,0.6467439354186445,0.7355668983025718,-1.674569625673907,0.9754995592623076,-0.4404013307372619,-0.21657587675034085,0.28147113818281994,-0.4588286584021518,0.3866553607653294,0.12695740842317796
-0.20812225035727522,-0.55317724534727,0.08286484186899613,0.48708655911559395,-0.5104985587635958,1.3049724408497614,-0.7399678398989107,-1.0975471896093472,0.834035811496635,-1.326619362139237,-0.5935827212498311,0.3008800498251253
-0.4930009346588328,-0.2539517063972351,0.4733366755549671,-1.5081692093721777,1.3542881995844298,1.1436718419804708,-0.8125845526991459,0.451647941971666,-1.0009584389087913,-0.862681385781058,1.0394790850405522,-1.1924062566325886
-0.5893647569442115,-0.7538621136909615,-0.029803781851440635,-1.3578232070654421,0.05917346556049609,1.9798046031694567,-2.4291597625184753,-0.6941870693037439,1.0730727670234985,-0.9653318217729685,-0.5773004394977086,0.4874826125713318
0.8496020970210246,0.3826535514774916,0.5245846830476146,-0.36971668475929287,1.3742909135733763,-0.09073228229111252,0.086953290111869,0.588621936003723,-1.6464558346608176,-0.2312081628170758,0.9677464046784847,2.1146786122750387
0.35701548596504734,1.1249325453032408,-0.3360666965057405,1.8286252624418249,0.1790209142295196,0.17720107396906296,0.06767148955845191,-0.002854243831696723,-0.5587882727386152,0.06975961656737698,-0.3926547824222184,0.9500666727950879
-0.6929095952606542,-1.742771973881041,0.2688049344392308,-0.8515918325016023,-0.7647077295879625,0.3206630477626402,-0.7973448497355118,-0.9730751390103894,1.7060158222174924,-0.7315808415853126,0.5894291571491407,0.664069074153986
0.8995998754332507,0.4094385306422523,-1.5105460503694963,-0.20822270961275288,1.2776190132317218,-0.06039792499073846,0.36038427038837106,1.3882773027454967,0.3559364858711921,-1.2777063102540531,1.7636121435220649,0.4804025018069112
0.30729952087660933,-0.2766717717191454,-0.687784294825431,-0.5363460269565219,0.21232614066789893,0.5421789741016444,1.396907532065686,1.417726634283043,-0.3024775423838356,-0.17893126728390904,0.660572889123552,-0.9978476286032707
0.8128621188389601,0.11339439196668935,-0.6770111767903435,-0.55404438408808,0.9618388324273973,-1.711204029011989,0.023579832834283734,0.29034531520977963,0.25228583529822846,-0.49827877710615814,1.4163497890126024,-0.9964582348409282
0.6296288419236122,0.45899400167429094,-0.3743900332069141,0.17823974390505556,-1.0683281711205714,0.20490538869251923,1.3302577791562278,-0.23920621284401772,1.1963431992507594,-1.8975391938116002,-0.3714338907186783,0.16311266877864267
-0.8289950109220723,-0.18820243877282114,-0.9265132547797481,1.4007772761956514,1.0387562896145033,-1.3774366498828958,2.23813192042712,-1.0562928133747795,-1.4451599223621965,0.6075709425262437,0.0961607363050564,-0.42819787857199476
-0.5601810401969696,-0.10358685340578061,-0.5335436258230818,0.45596839988058907,1.0688892755441985,-0.962623277607578,2.5305246891202735,1.0711133698724304,1.3178597502786895,-0.7288472359522109,-0.3546140432587659,-1.4466520814001727
0.7472936051232618,-0.2138751675546389,-1.5144140623981206,-0.8035309614270922,0.2897671443565355,0.7328898110299136,-1.188236086510001,0.8226395350231324,-0.4900365310951798,-0.26945224813107393,-1.659700170904688,-0.3505935534722538
0.6103702654334648,0.9703162017882814,0.5487004763949003,2.753229510803207,-0.8069220858097825,-0.19911623844902007,-1.1830630064186702,-0.8139959450130251,0.7083849262962771,-0.21984636984448855,1.0687102267964452,0.4506819137953365
-0.020901593964148132,0.41875996012749656,-0.08251351891139448,0.07857322096112584,-0.046008828712611895,0.6976144747158062,-0.4444299967257112,-0.686812733680816,-0.6142235592165626,-0.015440909493705761,0.5688778356091226,0.5803022189531934
0.117327383308782,0.22058353773736078,-1.7052076077760168,-0.5772209563821133,0.6112911472382442,-0.22077660360113002,0.12871520125984065,0.4569204641757125,1.6837233215553165,0.14604332136894624,0.49792203113932987,-0.83276146692581
1.277664895788425,-1.2709517210922827,-0.8348299105466731,1.4120963746775894,0.23457001993653365,1.1064063163911557,1.5866519998435806,-1.1754437473511672,-0.031163003166089956,-1.3045977677634357,1.2317658740007862,-0.04591561551575256
-0.5915713888358299,-0.3785797432131542,0.3366014275621669,-0.4690706179438185,0.6010827381077641,-0.2390807056213034,0.6272412210909549,-0.6256864237493913,-1.3288167485728357,0.3123584925488747,-1.1354115721528575,0.41476762011674145
0.5470973811700379,0.8986691603391742,-0.5430219463857897,1.6629136549874428,1.0122459076529051,-1.9549184895631233,-1.2032871296724998,-1.0405656649726316,0.47007642495509233,-0.34413340112880064,-1.3753653489583388,-1.2682624319848939
-0.20219265243389406,0.037696573123922904,-0.6969414601380967,-0.8706427909666666,-0.6484466533719213,0.22539258201127074,-0.6116574084743284,-1.008334009634352,1.3012299817937496,1.0844429884627536,1.2413672129977638,-0.7724347265631595
-0.2176812032272203,0.6595314695891383,-0.07459267700807634,1.4300303889213692,-1.1550756209601392,-2.168859845702551,-0.04200020796551447,-0.7200644941977014,1.1882631753723678,0.8149790239852291,-0.07034141956772438,-0.013190199138518682
1.09877685198719,1.7665118003276337,0.3435975351782162,0.20104766428169443,-0.03753880137224185,-1.4527209025324075,-1.4891599781454952,0.9060041545055426,0.09350037018179767,1.3227628303335035,0.21485050807405295,-0.9092118280742074
0.8254163489880298,1.0386060692088166,-1.4363524570391606,1.2910522327024336,-0.3297431588698678,-0.8829465289985701,0.013668457540914473,-1.7545464803403703,0.8120753235566449,-0.9383654476979899,-1.467101710625153,-0.3279374304062134
0.8135096360006385,0.09315833769974234,0.5501284812178794,1.9017657087015443,0.7858464131561501,-1.0077094777701874,-1.1884355910592455,0.4334842799789711,-0.4215680790397552,1.2866650011908194,1.4721249296157566,2.4957834111190067
1.305478807154329,-0.5109891701957271,-0.8002932816073767,-1.1326072905212539,-1.074498389658808,-0.5450508044162853,-1.650721133557372,0.2579473328101976,0.591037654551013,0.09407453213116035,0.6712554506877746,-1.5072247356626587
0.02100384163275905,-2.5535495960558983,-0.01792796824979873,1.2757718207583224,1.0203818741776796,-1.0420678235311058,-0.9469852794696143,0.9683437640849304,0.36281291612827776,0.6901877753065322,-0.5756003620661004,1.4246576832364755
0.6819529712949639,-0.16838492247285253,-0.035420140691509526,-1.4089039044254048,1.353612109546766,-1.4059526635856727,0.41102105489233554,0.25704898713049923,-2.8952660198690254,0.6743809084543171,2.0857020865164637,0.34166537867641306
-0.31026675659345604,-0.32601249581684916,-0.5270661182397741,-1.0471843552482283,0.00030496426228980426,1.541835744840774,0.40411571098651927,-0.3788393246661331,-1.0006055078812623,0.45905499446742276,-1.3634672075789078,-1.2240184734551756
0.3241663524884421,0.3903661943953757,-1.0236597461307144,-0.803409459792437,0.06073612558130447,-0.6781445463918958,0.09665391668743983,-0.815309725439865,0.20784460109847455,-1.0882241052509682,-0.32941684069754057,0.6785898673650288
-0.13014305436768459,-0.1539052269746876,-0.28568654809226357,0.5036366361778611,-0.7675465012301531,-2.2307676531473977,0.9916136605408773,0.9904116739094514,0.16499473175635002,0.9550806220827918,0.9869613585536166,0.04289996231748332
0.09699596499271819,-0.32038505943679435,1.625330309075195,0.033015876934859634,-0.5426608989740664,-0.36091837300925717,0.8855832342134344,0.4969480842552928,-0.02907749102598135,0.3516785121014697,1.1532772467815353,1.2053372683900268
0.5951570254369136,-1.7793989305072206,-1.361675030463631,-0.16713608416283599,-0.4083366806456837,-1.1247310580275538,0.20438134207027742,-0.4931356588162148,0.08937461864230185,-1.473085436105757,-1.4931344482165554,0.6604936491740468
-0.8182206832334725,-0.9399678291500665,1.6923130191048756,0.14623527902236097,1.442940067837931,-0.8849676272928135,0.06638185002570449,0.9089117241666606,1.2076676534200492,-0.4836805805360049,-0.28336860896948735,0.19632383432732792
2.0923872756854602,0.4766510408005575,-0.2597211710765324,0.5912895892934729,-0.07187078581077398,0.7103424813524852,0.12954670522009643,-0.4458782152061138,0.3541222186483482,-1.2130816625240899,0.7457982506599711,-0.30644316700543317
-1.006017381499702,1.7159076311326944,0.03537141708863912,0.6682481239413528,-1.3221729566400084,-0.44815761878521787,-0.14764517993708198,-0.0009418654939958937,-2.332626182338825,-1.426207283543794,1.4730599963569715,1.1689175690201379
-1.2141886127877322,-0.09752538374562343,-1.0867108113847272,1.094166835615131,0.2553543421120036,-1.1525966012178852,-2.174342726627676,-0.6044837085446303,1.94770964247424,0.8533242443596823,1.3889239325832816,-0.3920398210391914
1.1581108735000678,0.3278110735741233,-0.7712694166774808,1.8200348127674395,0.826290124622276,0.4462535099572446,1.1354848448198194,0.5338419044002284,-1.9065461039844207,-1.4793735205618896,0.7004346631592917,-1.4001834967579758
0.7916626939629359,0.9524781569528054,-0.5029096500380191,-0.021362372441476974,-0.02541136932159493,1.1499408306090857,0.39752283189367665,-0.99419135018988,0.9581426257087239,-1.321118295116138,0.08968639229259193,-1.895872623513142
0.6241198170521551,-0.8108939362002497,-1.0456949708779122,-0.5210889621309163,1.4692134397269894,0.5368721626398448,-1.216327445827061,-0.29858868806615135,-1.5643188384913667,1.9782229663388264,-0.17937565534769115,-1.23599956674503
0.6283455092642799,0.36681404328544226,-0.20891795737087174,0.6135361291851883,0.777508667265898,-2.4535555716504254,1.427816619272437,-0.6545537832511146,1.4234399768698212,-0.44788580164936204,0.4981197608562887,0.8029650433951282
-0.012246772846914623,-0.7404901063321585,-0.4070158918067711,-1.1442548162646202,-1.0491287298878536,-1.114989502397014,-0.5899798682127707,0.2637119616620167,-0.2779990460831506,0.6576607943638086,1.434019320064357,-0.3632229696827203
-0.8972543714858315,0.8648244384910113,1.8507811424357334,-0.6787041321116114,-0.5514328123964021,0.04744853063620506,-0.10776900265862226,0.3884879182410328,0.3842775561160934,1.124831534569204,-0.21402099164510718,-0.7720072642657548
0.07580455819372633,0.15140304795173262,-1.165974185680461,0.9993809463927898,0.22622628142460888,-0.2442994052640153,1.0235755955682535,-1.1041609270916755,-1.9861599284719766,0.7742136085105723,-0.2731706725248369,-0.43356973077682115
-0.6771617115121117,0.2984518139814398,0.10269051674858726,-0.12412837481770417,-1.6661892380266072,-0.32727515393919654,0.22013935838958884,0.4064313888247452,0.7295631652931404,0.14957284249147923,1.1452534426368044,0.8294435159858112
0.9751197334177512,-0.7825985974185891,0.24784628190182476,-1.208192458358039,0.33635673747061456,-0.982756692840834,1.3353758419158992,-1.4767233836910358,0.41630221207667034,-0.03726407922452962,1.0616091834626706,0.6333199557301065
-0.14705738150213865,0.7070323596107849,-1.0703205486518375,-1.4898030653651742,-1.7615824272546483,-1.4055840830774398,-0.3521014990427897,2.1919731714389608,0.617323266790651,0.537606348847432,-0.4998954842079919,0.16200427031308984
-0.8254971967925115,2.084712921231016,0.6868274954528385,0.04871667939380729,1.0234334555645097,2.00778171781302,1.6911732112803357,-0.5114730692800988,0.9496166236048275,-0.22466255277775368,-1.3187575955332071,-0.5997954723304081
-0.32138584165299344,-1.0079116954282061,-0.3983270128816281,1.1418965369680099,0.9072736847917083,0.027110953138911875,-0.7778028998325223,1.0492606649689424,0.17850886949863448,0.6948869238638791,-1.713443645896305,-0.3905527165889216
0.41293145427562433,-0.3397590076475238,-2.4923896515830672,1.1285457775311865,0.5047813609150709,0.6421217888674178,1.3176223293096179,0.20116639256583332,-0.21070807002833594,-0.25895891946900873,0.13016589225954625,-0.13233004937665463
-0.5637245528039747,0.23160747416809183,0.659849612104565,0.11088050289283735,-0.6758783643523114,0.0062511735838089956,-2.2651092188993975,0.24179550101917074,-0.8109068465995815,-0.14553610222072794,-1.1045974227137048,-0.8946416405486556
-0.8222203955664315,0.7864062119958165,-1.1169408841023638,2.008909419096128,0.17020282461353894,0.046348698637989585,-1.1001920513341499,-1.1660739258462574,-0.443114210476917,1.8817601232101466,0.8962607129457156,-0.11051747736600581
0.2436872114919123,-0.5595462852894689,-1.047774946139099,-0.10482036594046269,-0.5133774875146491,-0.06210339980928747,0.2979661384893192,0.8434408590816379,1.2064946195219846,-0.4803902493193035,-1.7167354078687798,-0.9467791212903297
0.24496657110872277,-2.83303029014274,0.6879020828923982,-0.13856762339741077,-1.0308152774500663,-1.1204458590744322,-0.4004454261431075,0.04864713191439982,-0.8377896238985154,0.01924138942807609,1.6136300925883449,0.3658064800320363
-0.5069431753711298,1.359189494164025,-0.3471614824184498,-2.567435909739,-0.3387430117714108,-1.5144894580342476,-0.07474861990256311,0.4701396886843902,-1.8430957723733188,0.4305627267988223,-0.33679615777660243,0.4781691520422957
-0.4710383056183228,0.7605061195841426,0.9177721505515003,-0.44736294916121566,0.6982655364920956,0.38622537374498683,0.041650920160711244,-0.09071432284511756,-0.9875329267320844,0.49479345698056415,-0.7987313520814852,1.1172109001659918
0.2320499373576363,-1.742947530486665,1.2101660953653188,0.8520150349084945,0.043814192831760926,0.1878424072711665,-1.1909026081270546,0.130043062916625,0.6060426796910358,0.2928624170478052,-0.5411571204163589,0.26047723083777896
-1.4480843414973241,-0.6075687917795559,-0.6449284603222979,1.563961336859704,1.4507099241344232,0.9382808984597072,-1.115929614872567,-0.8871715942317684,-0.3028522436041003,-1.2503901616723252,-0.8647675802474665,0.22876228997715292
-1.4074637743765552,1.5681824295273261,0.7932624959550306,-0.8302346336672846,0.7657805394802747,0.7353608266420265,0.23212204880842066,-0.15289107683072373,0.6044936563086454,0.16204336828369678,1.5147042755083011,-0.8357253221220542
-0.718444221252436,1.447796418457866,-0.7554608013928819,0.4622523292930485,0.6586908139056186,-0.8085121927496709,-0.6663329518217799,-0.4198892083193451,-2.000461080431385,0.24282893396832672,0.6716298383466593,-0.04751523597249663
-0.21344715171184725,0.9386400226789446,2.2331159171321766,1.0468790323232877,-1.608926549445604,1.1325913089218718,1.3410338589611683,-0.7055711977561145,-2.982541912403381,1.1399602708849947,0.0968512509333819,-1.0225245781750887
0.3109075655980046,-0.17611243395986265,-0.6929570045312151,0.011208153195899085,-0.28515853015527837,0.7650271951545173,-0.19194715543278487,0.1345257396949132,0.2641085697064975,0.7392415271226874,-1.2028794891613221,-1.7042865970071768
1.475356216949552,0.08298741881250997,1.026087440960004,-2.2832804575272303,-1.0643724104341996,0.6908415698573351,0.7187512431068305,0.36338695581851566,1.0046928867349982,1.205860359584199,-0.05504296556236884,-0.26515649595958884
0.8576596232020194,-0.1309258051261265,0.8437900258815756,0.24728999957425232,-0.1830028796239041,2.2493267919788082,0.44285166930710723,0.25077200972984653,-1.7109952225970104,-1.0032053914699748,-0.7706226525796559,-0.5037644092084624
-0.1599385299634271,1.1282397832688376,0.3160878221089338,0.7614306240608931,-0.6932761239231569,2.0439587625081876,-0.6011610571726861,-0.10226079483646565,0.5260432193398258,-0.9960203884140494,-2.630950184261199,0.6114273079567646
-0.01901620790268883,-0.8758424064951101,-0.6705431614166831,-0.9474228950184589,-0.3776049530579387,0.6899137665548859,-1.9803287869523725,0.411109055030255,1.1902635735787104,0.32809967083258557,-0.6936058479563586,-0.9617141228774824
-1.0025293646378088,-0.8057996548842047,-0.1513974919414092,-0.254154530874387,1.0611627323738506,0.5651972058375297,1.1849413676210472,0.2421642119817752,-0.004383541910870846,1.1328519858396253,0.6052397407313095,2.813484426656226
-0.01851313599238993,1.0102745868360157,-2.153588112944552,-1.1554960421287641,0.4752499290058339,1.0816551817696805,-0.9789090766971428,0.09752720449497873,0.9010908393362036,-0.20043392253271167,-0.4261393872853045,-0.47992898257177585
-0.2886586389201383,-0.044361455511561634,0.22442003838225033,-2.5701475485803527,1.007114428981635,-0.5839537696703713,-0.4037580554787445,0.16615101996895806,0.19040763415137985,-0.7402895368592513,-0.14498954022086044,-0.07032164767244498
0.3227185603380895,1.378467355453808,0.34961533102838527,1.0270044117876564,-1.6006831090159857,-0.5698292575910502,-0.15084244156657395,1.183002989767936,-0.2629343752735557,-1.6014672014061502,1.040994062201691,-0.5668545416825557
-0.827230943552323,-0.6715122069805457,0.13349941906137147,-0.0037485338018516225,0.05797469661566357,0.6734214070919132,-0.05101156810368099,-1.2050735614026502,0.8210155410088787,0.36302926566519744,0.8619514080437668,0.7778228937403958
0.5193465142411723,-0.0547783603388251,-2.9733061712925575,1.5976749967049828,0.9667049813966009,-0.8564760891275723,0.9619586625390184,-0.31859616981789307,1.9127975855824833,-0.11291381388827956,1.9609172124279175,-0.2137919843262633
1.5327389130025777,-0.9224129848439533,-1.265636445089811,0.8573221919061772,1.5062959148871558,0.5927694855232551,0.0058240579232769615,0.33817460862287224,-0.55784114221789,-0.43394632083057766,-2.193549099577021,-0.9792725912916408
-0.1087601484568576,0.007362681423567135,-0.7480909828486626,-0.35420976166544893,-1.548088389692493,0.15683216653618998,-0.12735409025933067,-1.582735902482666,-0.0877316670162328,0.9051900360931843,-0.8422877397985048,-1.833479579455726
0.40171172209894146,-1.478546936998799,0.2916589331890461,-0.08318066010440868,-0.35148363616116995,-0.8561901045921188,1.018455956545013,1.3825844833260705,-0.9906854547932511,-0.08679462287744313,0.9081417015434889,0.57391837976486
0.6901439917111125,-0.4876334209549628,0.2893389056429845,0.5661773907701725,1.0342266740047628,0.02586651028829931,0.6006523718867851,0.2548178757244813,0.15521354444613417,0.0008868862251668799,0.4313953877011515,0.6498098816897262
-0.40122047188583626,-1.4362538649281178,-0.17022379197117923,0.9668834167557434,-0.19227831281144533,1.3050815921384162,-0.735570445980655,0.9569017644237401,-0.15639936945041694,0.8998737225913145,0.09946627836827243,0.34272151139850443
0.22409248181041677,0.6939232331912581,0.6352455366039567,0.3226706307420114,-0.9104176741697237,0.0823704506538375,-1.147155377478833,1.119761878554883,1.1584519433701879,2.190735779361357,-0.6047914136913766,-0.21524350648669416
0.01259240078179486,0.7165893397596517,-1.0262423753029,1.1055931452894843,-1.5499991784960077,0.08654764761797734,-0.8236997751999194,0.4124529289106525,1.4197481686648794,-0.4444624713008951,0.22645147117972228,-0.319213168894194
0.09767609854883172,-1.730262730484345,0.6102350056939962,-0.2966687366744715,-0.9487015346631669,0.3289852789045963,-0.04921975018821472,-2.23259370544405,0.7879854532870761,-0.876239774485943,0.16888684070935414,0.7775131566329047
-0.7730097838554665,1.3338857455005728,0.47474210483989104,-0.9971435467856863,-1.688901668563729,0.4591885228916088,-1.2460537751704222,0.14769422173020996,1.0467643443813874,-0.9890589695792729,-1.851991654378832,-0.10105124462759285
0.024510174258942714,2.497415126419854,0.3775547328379105,-0.06480925356113022,0.058460456834025704,-0.33084046608119305,0.09075304716246792,0.21188691352859798,-0.7048362166787517,0.4768241717836939,0.21363378707569683,1.1245294720603598
0.49799829124544975,0.04600638673634095,-0.18204043108565582,0.2051848907361836,0.8963101857786598,0.3502610479670479,-0.12919830979034094,-1.0868667555714044,-0.9549319181002002,-1.0905189873709145,-0.5170304111933836,-0.09904725700000884
1.4511436077950417,-0.6411142602246448,1.8307438248312617,-1.2015353947392868,-1.260974758908604,-1.0490703595907331,-2.542519032310562,-1.7896734567528172,0.43681737572451623,-0.3732223507166378,0.841064255117504,-0.1353268781065562
0.9592708260852069,2.8243305910030463,0.4931956884898786,-1.336722084146622,0.2577297412110527,-0.799071056833888,-1.4061751862672949,0.4616693028013537,0.02002025726128582,-0.28527998028888457,0.34465640017353383,0.3708547624212034
2.1531824575115563,-1.3189684983025107,-0.9683358632535589,0.4473862964734275,0.8452710294458669,-0.6711491080756229,-2.8857502436841536,-1.2491903372179358,1.9991888813176482,1.5563990906717151,1.9559052852458976,1.3917409771200997
-0.7673475628880495,0.020106466869098387,0.2483054757359842,-0.4063568513704236,-0.0027083268483496454,0.46976268963410817,-0.3439030610443093,2.0614172089667857,-1.9216444829287525,1.1928602184302324,-7.341414471059449e-05,1.1767416046945947
0.8723206367206782,0.17962227263192343,0.7524833770742185,-0.1658409056620021,-1.6106942949172454,0.16023282755627707,1.0740136453460005,0.2631372818131559,0.6195808062039528,-1.5367151960532217,-1.0913111197969807,-0.0482367952011777
0.18334200573835174,1.3451476204524146,-0.5881085989243096,-0.3596926657008235,0.3862115546625031,-0.13435957724395306,-1.8906579554280043,1.351511717504909,0.603050785148942,1.5848242578186038,-2.488657051626951,-0.37373153122062974
2.1898029332176723,0.35973897512678843,1.089272246931099,1.5206009017632118,-0.05464694476447034,0.6907699895852868,-1.3222868197933644,0.031163399367781428,-0.7619577962497457,-1.216151219359919,-0.938275726376146,-1.2083184994005884
-0.8082982853551515,-0.4986338957884514,0.3820337057160107,1.261761160395,-0.1565046486008555,0.3788620827423358,-0.1637378672731814,0.7515388279762827,-0.9675771650031598,0.16029100743005603,0.37735136122897295,0.6920766766887596
-0.8397218421807761,-0.9511843703879561,-2.342478337665347,-1.2373536900391682,-0.5468372457604648,-0.2899767799828719,-1.0637530288534276,0.05326393122971822,-0.33926183823890094,-0.8345435867695778,0.6328707812663652,-1.783801431454344
-0.5993926454440222,-0.34182182024613555,0.29967197733792633,-0.532793213080447,0.08678742627404129,-1.035230842819812,-1.068672767066792,1.0055729303756735,-1.6415112152476155,-0.3883046086096879,-0.6052028582154119,1.7052190168696266
-2.123895724309807,-1.0069273609451441,-0.40602915441271537,0.850004267969593,0.50981790844696,-0.8197088012267528,0.5415941061731595,-2.0383319015353467,1.4573328041351108,-0.9804089453455522,-0.4301295034397943,0.8431323467296824
-0.525755021680761,0.04782531978468294,0.537179814541736,0.6019362371032422,2.3906481343358488,-1.4668094653928918,-0.49489544457292073,0.888147843889421,2.7007289466805386,1.6755225205604303,0.06993632927598196,-0.7459609819882187
-0.759132661553698,-0.5641961798604865,0.9442148402518143,-0.04145796232978563,0.11233206838720484,0.14056955015082576,-1.4867248873979815,0.6687641609342164,-0.3412843283702203,-0.1400955428465418,0.38005320932060965,1.2308922444160941
0.15039378647620763,-1.4940377932897506,0.195162047141818,-1.1376002049642353,1.5111411600126732,-0.8621387824536719,-2.0877158900571007,-0.15415165808302098,-0.6392951791995735,0.22558981892046392,1.0200816888505173,0.5481813432080096
0.34175597577715944,1.2551457883749038,1.6652522339446956,-0.6825400461535457,0.3577550834268766,-0.4953229819838707,2.2084077700637312,-0.40916388466479314,-1.3108583504621043,-1.0722762179942742,-0.5875771710746548,0.46769105052072135
1.8761708392158862,-0.4976725234290394,-0.17870688456349573,-0.5167675675462897,-0.09952832764775339,-0.1275906806288639,1.128309054562671,-0.2991022505097704,-1.0961367555168606,-1.4150648732673192,-0.7426311648051591,-0.2669256669838127
0.9504238381860503,-1.2681368049753126,0.6248178230538752,0.2769943311191006,0.14854752771129245,1.0439951913306855,-0.4516333460620166,0.2827669683819988,-0.5894444216697706,-0.4441444732942996,2.024792435676716,0.5526557008577064
-0.5769036556624031,-0.16825913448754154,0.8049425736373473,1.7037271546972377,-1.2217363696925094,0.9287905983168195,0.0878580116639373,1.2140393646559657,1.2087679408476346,0.5214600685103625,1.78322847915437,-1.4167770938164832
-0.898414671348358,0.06837156596765875,-0.09734596889273275,-0.686880234788128,0.3058602707520377,-0.05470847125397434,-0.48853106209698816,-0.5341892077775119,3.1930072854163076,-0.12145215141614787,-0.5294261746938566,0.06285325837171392
0.4919191715065057,-1.7464667255790336,0.7787743079777822,-1.0260352475552401,-1.9920650648213725,1.2655034894002992,0.5104567307912509,-1.701767091158809,-0.7228259641251196,0.9745394964015864,1.1425391113428456,-0.6798757865167241
-1.3202332070206422,0.33164766712576277,-0.5946729871621688,-0.1085864768279433,-0.8626663578885319,-2.012348509320861,-0.8542143677178806,2.4845809842450635,-0.9020533972982612,0.12417089070290546,2.2047087589895487,-0.28805487927979667
1.8314587658543537,-1.0471575686902646,-0.4225684190212185,1.0317389805140589,0.10984309313381067,1.8772205497665126,-0.5431732164768234,0.6715745645136891,-1.167993209912442,0.00646521611294554,1.3169583387898993,-0.6889150245406013
1.179440120721287,1.7110288091907877,-1.3124886903363124,-1.4468829667607033,1.1939822731788443,0.692499714304585,0.4554008401944966,-0.391211614041985,0.4507894290758306,0.5351126855925138,-0.762909700616666,-0.6377008717960015
-0.4691756521047048,0.5239605120767348,0.24140911637004694,1.4536341508749477,1.430624396998394,0.10280328501992952,1.4538591044464073,1.1888467189970484,0.3442209118379502,0.10029953147728403,0.10481250515052777,1.2884458926819031
-1.7131345290908775,-0.39989999010931654,0.32525167585434406,-0.1720313621156695,-0.23654657964093476,-0.8913596807520631,0.7414150946621048,0.9336939018151047,0.10092580231413657,0.9440292047350465,-1.7518117983101276,-1.4328686659730565
1.3538723741654128,-0.7451677703173505,1.1792631585792293,-0.7343200023133737,0.15571731953044088,-0.4380673661304643,1.2339138775909277,0.49228237366989974,-0.44430371706887806,0.5552107877665946,-0.9649468623262338,0.40866253351761495
-0.11453984525261789,-0.10496770756362395,0.7911400043558836,-1.6001892867621594,0.9843624695820279,0.6093508955780412,-0.3124173375111791,-0.4770516919944948,1.3592046991636915,0.9109649218234425,-0.015301295389142953,-1.1306891214512298
1.2378163119734618,0.6127907415832897,-0.28479555664743317,0.7065207734206274,-1.3294935721929189,0.6320793835314138,-0.6230104073769434,0.6673225189843374,0.7642610293077798,0.7164567491403027,0.21975580722921584,1.3215038243636834
-1.594427658794367,-0.02549412858519966,-1.178179687334277,-0.17117119524153482,0.4047475053155036,0.6683933705907869,-1.9383811390819239,1.0895588236927098,0.7208638198487672,1.3602706114202159,-0.6929907816439684,0.4278007279672597
-0.5993750229537729,-0.21715880713685662,0.432850402519974,0.1707054827545068,-0.827892867365809,-0.7284967343664605,0.07219835734128387,-1.7200727322908453,0.37023862699582777,0.8289341553335741,-2.7516731235016407,-1.4046898724677932
0.005243699718183166,0.058370290817895645,1.110753172414642,-0.9008117410113639,-0.17182504467671872,-0.9298477130152097,0.37904703135644024,0.22449498197211173,-0.18938882241993185,1.7475955397420577,0.19356285732360615,0.3346674188590058
0.046980593764742055,-0.6038589312369547,0.7551849738039433,-0.31909603425102373,-0.45902325049431536,0.19520524435250644,-0.3000053957272057,0.29817570277746885,-0.7151682641356674,-0.5411854839077078,0.7281716263489562,-0.6958643169475097
-0.45006547147924364,-0.3432059268430377,1.0844775248572875,-0.4865812463547379,0.43535812704814747,0.7698539577714733,-0.7767013260997346,0.2660766614288725,0.5199050155435296,0.8347841515664395,0.7661231188818505,0.22687758893737828
0.6228499323474987,-2.085792438905004,-0.21188953119824255,-0.10059310537820755,0.5503036740090902,0.003184849504858575,1.243403439843132,0.04618361651617732,0.42316265760459393,-1.3807167796052384,-0.2058518339501334,-1.3284253110738513
-1.0676204293825944,0.9737262308523678,-0.4666189681756455,-0.6695523263758105,0.8910786773973972,1.4814842468851672,0.6318042771966538,1.186073075353902,0.5671911366188188,0.9470730447945763,-0.13516155621012446,1.2309605826310053
-0.1423794850212935,0.2987977803217619,-0.736901352231799,-1.5341809606872214,0.34819882846444833,0.033137462190111384,1.3128254505190116,-0.21131693307716393,-1.5644339848308997,0.05644458042677852,0.2465056422476731,-1.9974095323588341
0.12029563171189886,-0.7734558440334302,-0.05589646661359551,2.728499745296607,0.17165376996889647,-0.000708643832986225,-0.9535790950162043,-0.0027854492889701106,0.3392781429709935,0.9368005906722566,0.408899154184648,-0.8075742931663941
0.514438834058749,1.8987349813552388,-0.0785907959688194,-1.363404247337514,1.8540238004386018,0.6705599911926691,-0.7082341265480232,0.3156653180784559,-0.3086668473413452,1.6795110469146972,-0.09344932477403875,-1.0819784104438515
0.7116148780888898,0.08701648039238655,0.2066776285391162,0.18145900694253897,-1.5243590701971772,1.2192301375920387,1.2031772432515964,-0.17806952730481684,-0.8785972062702595,0.8010967164464359,-2.322982199025217,0.3792537115942932
-1.1246420918378692,-1.0361435719751968,-0.129297457035508,-1.7720278284240423,1.6956098601292395,-1.3492552598045449,-0.04734707975579085,-1.3860012567511546,0.7284269442199892,-0.41274560220204715,1.397047572453216,-0.4925143684503482
-1.5341141707356223,0.8567374214704584,-0.13362772972677125,-1.997047436617975,-0.28982190886839687,-1.1180117080355982,-0.5691041116785548,0.2141300436889329,0.17727039029888297,-1.0879720710559526,-0.4643380180015672,-0.18439963232290518
1.277676821898509,0.3980482165092625,-0.7766940529721439,0.09782649185226754,0.5708915863683052,-0.31326143774403825,-0.49951502376283974,0.22545637737145813,2.354123386393777,0.5360108553321757,-1.223899570321578,-0.6415317595008019
0.33231401197959165,0.39457998548421935,0.9416190135514908,0.17436758776830327,-0.32565968059360106,3.1589417845886634,-0.01108052613430389,-0.36516508141544946,0.48448216109935194,-0.2859370405534038,-0.3925845067596692,-1.3684440573018204
-0.7484865365565536,-0.4257556046515905,0.0765180622437113,1.2614989908023837,-0.702541629551626,-0.2614685625409319,1.00295181583541,-0.13231491652930216,-0.29722062791610887,0.6635990946574616,0.11168620815522465,-0.2285420452672495
1.551151975522523,0.4504957237780347,-0.17444393428528215,0.3995468410157058,0.4845771927942285,-0.12178294301056877,-0.1605128520915885,-3.1798702396399805,-0.10828550244389851,-0.506740562848633,-0.6090817256451742,-1.3028958911204427
0.11567463429285867,-0.26175829022109454,-0.7474292532492047,-0.14981071874579097,1.0421283086144433,0.6183519298079181,0.7905328301777776,1.2084060493341344,-1.171901269632814,-0.9294778571647812,-0.5400389123895996,-1.832037417174916
1.1792971840638264,0.5559414516458422,-1.331913110391086,-0.9496002440650042,0.4730079549674051,0.9769289028134742,0.46737777684604814,0.9010301758605995,1.2308481785197092,-0.2417398139357254,-0.32463547786290087,0.6259198087705554
0.06751848141010895,-1.9049444540106388,1.3079641925493437,1.4990120682335486,-0.5421157866828823,0.16978511645475586,-0.8783390401809738,-1.3378311804825176,0.3149852857059552,0.5009521764188507,0.36181186842268726,-1.2390660980115473
2.060747924881987,-0.4338734629791891,0.5546387081318072,0.928851246050224,3.6113500628156694,1.1643474950402564,-0.8791293679871233,-0.6754672450275622,0.3321296802931448,0.12219870459349175,-0.7989888619087973,1.457112291106364
1.7553408424432044,1.7221550978081948,-1.6239178425699672,-1.2463294777484246,1.1985736708662522,-1.1939711830259199,-0.45026659193147833,1.4485213610415906,-1.0642184641896748,-0.8130857247071908,0.33744249080988303,1.417664814634619
-0.2489641484790735,-0.7670674554003005,0.7631423007096569,0.03796372821063529,0.9333423042072527,-0.7660884247427251,-1.3368376546622682,-1.1548506773209521,0.7790011827586268,1.800514113293599,-1.3802791595380313,0.8856917471464213
0.9715709509543554,-0.6038382974931866,0.9224811702331092,0.14405223152649677,-0.35296423074220423,1.1624869505796394,-0.5141388557993929,0.47845868923613394,-0.9353979684334627,-0.13874290053309707,2.0058854515989157,-1.1357871795388723
0.6453759495851475,-0.4479613384499751,0.12437612230092951,-0.3456536566056691,-0.6251657882890393,0.010943114783474185,1.5134334167313848,-0.4920167310804446,-0.5539095111735072,-2.2618241667132812,1.0723159787458643,2.1216061574672156
1.3686315575323487,-1.2148061358886433,1.598110895751759,0.7718504858067948,-0.2798390758429393,-1.2624506050086648,-0.03139033582737019,0.41014195668516573,0.12543790026326865,0.9322973875647977,-0.2746693936851653,-2.3524435700755895
-0.9649234605801045,-2.208280776228252,0.21671964212288297,0.8317331383481771,1.0814065443924832,-1.3225379316172075,-0.7664526660874534,0.05013802515706501,-0.58094546796205,-0.011103903606774742,0.33475000067507266,-0.8830004125162596
0.6860514599984393,-0.23058639852361285,-1.4168235279491899,-0.19048569780510585,-0.990604337075828,-0.8109408053447048,1.9157446518204777,-0.283231829277092,-0.7923303105255789,-0.17052197407547653,-1.1681690838283825,0.8332191263977796
1.0584244868495878,0.13585942408165688,0.365169001048321,-0.28086924579765843,-1.068203831454317,0.0021255421579162827,-0.930617319726204,0.3885218732514541,-0.050135298432069486,-0.19039430665581045,0.5618216788714424,0.7546951342859225
-1.7587394864231143,-0.05250506853865217,0.24489730171272925,1.4989584626675316,0.5395475333610181,0.4673795697267886,-0.961882966805388,-0.4930471858484473,1.0100068037340633,-0.1847629323610488,0.8454085579191971,-0.7251408900053824
-1.183258512665775,-0.14487856194788684,-0.6032968487781549,0.9328388923622372,0.3191964446421203,-0.32905999994413937,1.2294856818066993,-1.7842328729554744,0.8950762633228624,1.668976640457176,0.26632730340403016,-0.7856512913619573
-2.0392321777601006,0.043040870850387644,0.573558836877425,0.07236038990838448,-0.7703135378908958,0.38499918923951904,0.6613180596003198,-0.9277222687537345,0.7074155482775557,0.4645321350415728,0.9022843194974183,-0.2153903058671571
-0.26940683444455776,1.022841471550764,-1.667665266190862,-1.6292090390800535,-1.0912035784152248,-0.43706648669361503,-0.1300588525263863,-1.0478586248809458,0.48623983355780487,0.260377859039821,-0.0070316599372785464,-0.08697825560008453
0.7175422557959623,-0.19044618592921678,0.9905668274427895,0.3440001063050359,1.437896993368432,1.2239202016169175,0.8319088999891613,-1.6041191579208722,-0.47556405924136397,-0.26273902337074706,-0.10138357051481206,-0.4694425791855645
1.502357052096028,-0.5740825770872696,-0.8781217036054526,0.6980834649176682,0.35700442529956194,2.5518400945723556,0.300600001229167,0.36940006634770517,1.1208725827926223,1.728473826909446,-0.6598683209575276,1.6579956013530195
0.07409478041977519,-0.2811254848880863,-0.9849461251170324,-2.754521628398373,-1.3635358637280326,-0.39261273208442393,-1.1861924157388257,-0.17276669061050715,-1.7359025369535035,0.8429305629091586,0.5559036566829471,-0.6836311554259733
1.6286155455712918,0.5793467597567757,-0.11382477230747688,0.2518694483180255,-1.293625536082294,0.4799328107989457,-2.397584707014306,0.3539410658098197,0.4337892716377479,0.9890540175353475,-0.8365585223261345,1.4664672455400054
-1.3801014582148914,1.4120268785432495,0.4329729280436354,-0.4166919867957354,-0.3615119724504693,0.3984108241501123,-0.5673451517072902,0.5207513556033754,0.8412949841156538,0.27816797168509916,0.4143589284418486,0.40593117385812166
-1.7033824393551547,-0.6281437391691783,0.16392406359342962,-0.22085428012955155,0.7328418069976331,0.13869542625992545,1.0849248358982795,0.7564688367602417,-0.090291568901179,0.9999375223902929,0.3032225570375764,1.0191894162747424
-0.05554769889661878,0.09893378702888371,-0.7426591657723782,-0.9073809527633206,0.5950088021082799,0.6532509453412914,-0.42847008834661526,0.40692174114878144,-0.722291764752667,0.3931842319354487,1.3439833108611732,-1.4949117702315085
0.3840654489393073,0.3383574419359596,-0.5060892911918885,-0.14818929040364195,1.1316785370012177,0.4788211889798271,0.46009719834924406,-0.9796085967942189,-0.0370590227197124,-0.371289237815088,0.5835028613911011,1.0279911729958229
-0.03269474809409311,-0.9925780067288229,-1.133042347377462,1.3919915761813313,-1.4903498074607975,-0.47105357038489465,0.18448544844506723,0.5795255252509753,-0.7575950307147912,0.3694158162498746,-1.7568024794052701,0.9926030260879026
-2.0674421000398766,0.02041716721291813,-0.22467990162987012,-0.44639849881551563,0.22384668977965672,1.316545772622688,-1.6935002946143993,0.22180473920770608,0.5142606576831439,2.097085551206828,-0.6635188997755513,-0.6660318057055314
-0.08912003951278841,-1.465673857342095,1.0750212145109097,0.9655735587931837,1.4259103323213609,0.2016662474867759,-0.4063956937063165,2.190104779124827,0.9457336579929739,0.20381833390973617,-0.6894862199992348,0.8479378759578686
-1.3044695005048532,-1.7690503037393988,-0.004262937643876164,-0.8063312188796102,1.3328017304760988,-0.3848004198303633,0.3588793304465783,0.00791833987300527,0.44668978196865544,1.270169727560179,-0.7318840186938158,-1.479912389297532
0.6696725488300385,0.366746407892257,0.8594142547594531,0.7587561926560389,0.3589099814126859,2.4432025238474013,-0.7871462555043668,0.38289978573293226,0.3871355503226446,1.1913797186138702,0.9666011814964649,-0.47462825205339176
0.36659824609684827,-0.3838747413307828,1.4554013377261916,0.0016558556219512324,2.348018508653876,-0.11621337715559991,-0.3625381570279519,-0.09482560881430213,0.7603175568089878,0.5628696761989,-2.2033590643074876,1.1671003934203459
-0.9398797863273552,0.20228040762121913,-0.588018519036967,0.3520248287892806,0.6092851164158597,0.2549438414237493,0.39174709209711145,0.048895850696547866,0.8758893065889194,1.6567743695229684,1.4244533260997099,-0.18197327132236835
-0.5138669173366935,-0.017894977008350053,-0.18657325305536468,0.007153256097487521,1.042746632841343,0.17544034458033667,0.07262999914297967,-0.018613354083096178,-0.7782737095205002,-2.17292456795871,0.9985348722226121,-0.26423113763725004
-1.0592135218889516,-0.9764000486637974,2.171192861062495,0.6416252324412085,0.044447918775506724,-0.12989461095120813,1.046909740924715,-0.4346235762006521,-1.5379932766274664,-1.8363777873207339,0.18575453793769325,1.4045585620311374
-0.06267909727317188,-0.045254301964336476,1.4443434119799452,-2.567585117933758,-0.7809752928442871,0.44866470504401545,0.3836709131634792,0.17735365775491632,0.27788665725400497,1.7278265400897157,0.349199060671282,-1.953487990466792
0.9551423205012383,-1.2331013050148552,-1.6724045258123525,-1.4198253134575696,-0.8752092007787461,-0.844999909091625,-0.9558499984020169,0.6217604421231091,0.924385697760768,-0.647426057446153,0.07501058429890711,-0.17764583236900064
-0.9857260463355437,1.3909723580014006,0.38714831606090655,0.41708049800864466,0.18161521479442014,0.5965433865230575,-0.47754671392953596,-0.41950667937065866,-1.5808984483444433,0.11177207193167513,0.15858265324722112,-0.06603487131189725
0.5040465155178444,-1.3559703448599638,0.0005599923396953997,-2.0435383538962357,-0.21150200685020693,-1.7583540283924297,0.020296284226277106,0.8355732885102264,0.06883207634969443,1.7505782220807693,1.126343440160244,-0.7967413068494787
-0.5302576183724408,-0.19578527096858134,0.8264531108587624,-0.5305803556472093,-1.7685856699134812,-1.298069751257129,1.3384150765140415,0.7143103295997947,1.128335679727951,0.1996502312031319,-0.2237038421037709,1.3741481709382175
-0.7928728322623442,-1.0422715880472484,-0.7449787674850553,-0.05434084103664975,-1.0257935849257411,1.8257245471685153,-0.473525630282306,-0.8802622518266464,-0.11645809616997507,1.689608768028579,0.6003392772719228,-0.9100670432959653
-0.10703035995455783,0.5704211733607956,-0.8396083720406722,-0.8281401376128967,-0.318403574054093,-1.2561800267217864,-1.7325688023980281,-0.9636897256181444,1.5211342947396844,-0.38823968275665804,-0.8712519321873287,-0.8975281827574206
-1.035242322419374,-0.33143137128150285,-0.6760707152936095,-0.6915614026937736,0.7272793759371594,-1.9599588520368607,0.4405669034911882,0.4481534001069268,1.3338389241453312,0.6158943348730559,0.5325374601935691,-2.472249072038846
-0.553649305347182,-0.5186667196212101,-0.5719285461984328,0.27158220015359236,-0.016073886162074582,-1.2314161690661876,-0.7555982483439989,-0.5875357849791466,-0.18271254675727835,0.05813520805995627,-0.2727375331480987,1.1107494663392954
-1.1978778925888485,0.8532015450515544,0.8153241668090142,1.0092949557798092,-0.07206421050051394,1.7400572691967342,-1.2853013195749685,-1.0457106472694933,-0.36773970358225494,1.4906336079139102,0.4279853771639408,-0.32932068444091245
1.9647251329163893,0.029430591677552183,-1.18120117314888,-0.9584493812548077,-0.9869126270033162,-1.791861740272715,0.018803012825838537,1.7168974461534028,-0.3493359966632474,-0.2616151869356204,-0.864570715568673,-0.32756072330814795
0.03526355197172861,0.5166444459359673,-0.6226138999593189,-0.5750581961873702,0.023166080062098828,-0.9558141825915508,0.9728676418083031,-0.9663275642986852,0.13485492902590848,-0.9643033514641056,0.44924597125802035,-0.21321786834380568
-0.6997255079925856,-0.9813259365174648,-1.7890123905014412,-0.7312609733270449,1.3191010274459878,-1.458192484316987,-0.5738805396610188,-1.5235954481592393,-1.1735034625825964,-0.46761901375688036,-0.046770676929026346,1.1932583925928966
0.213979910734222,-1.404816943927507,1.007117823412373,-2.4213797518772786,0.155575112758557,-0.2741291970900085,0.4965738871826296,-0.7836933884211146,-1.3583710645707485,-0.42325262417909554,1.564853816884021,1.6128619591615863
-0.11232804969082982,0.10720796204013365,1.2710300994311405,0.14171179031750872,-1.507313581481862,-0.4360208981807365,0.6819136630424327,0.2316481937225638,-2.271494765163124,-0.6471500385866964,0.2589504111986632,-1.7324594106601399
-0.22096959953322298,-0.3188463554947312,-0.3270734308637865,0.9347177458284922,-1.251522794304531,-0.4807565067270335,0.7917964936666289,0.07355207733421328,-0.021152973212553095,-0.6887230455620325,0.49323239477169606,-0.4629210713737083
0.6141667000434252,0.6264346724539442,-0.297949364813223,1.0166432073158822,0.588788877223153,1.8561337994051366,-0.7322723096186016,1.8872134301648316,2.0388849351552283,1.1217172758942275,-0.4415207504375363,-1.1351640195364776
0.7575077100473051,-0.0799084526625497,0.45322190228289727,-0.8707663764407388,-0.22431547522261966,-1.1990753176375482,-1.1210820579333853,-0.7683929477727645,-1.9905179489431553,1.4078195094895174,0.31209107228004,-0.22366372517711192
-0.5305011476105275,0.2050753392346299,1.4744820073782556,-1.2516980485201425,-0.07458023010351422,-0.10218777971711089,-0.9847531049585951,0.236156406987923,-0.1841628774742773,0.3919274963225484,0.4740092333845725,-0.09105892657209187
-0.57581824064468,-1.6233825299412434,0.40861074756391724,0.021605547591684655,-0.612734175014757,0.3386012463207343,0.7909746721224697,1.1284888883891497,-0.2142074008243377,-0.6473295417091344,-0.3542407023106691,-1.7186870153802978
-0.275051697151644,1.8884369396142566,-0.6975419424751146,0.8292736865664673,0.5034122121999125,-0.9802092620721439,0.6673931546708117,-0.6590158484933484,-0.15206625052425007,-0.5840305094617007,-0.4322349005491496,0.3686649577916858
-2.301921164735585,-0.16424198503203188,-1.6188225719864404,0.15485044831038394,-0.30091771324534927,0.4865899812466025,-0.9571506007003348,0.7037242080689715,1.2568012493966925,-2.072911298283104,-0.8066224254844495,-0.44918400416885235
-1.5151910621985523,0.697586970339199,-1.1151262626634877,0.28930463587376126,-0.18661322172860464,-0.3998104945533078,2.132644026343636,-1.8321711008589743,-0.8884028757433097,0.3796857113453086,-0.07605164092999808,0.7804882096532201
1.3668742674445247,-0.8360916702196265,0.07321945031246505,1.1418309277362335,-0.8512233916631263,0.37430906618985604,-1.0763639665871654,1.7587545394107384,-1.9462531930006357,-0.6827302191961108,-0.6531590020798669,0.030298018591116655
1.6449677135012837,0.3080099022173409,-0.6553275232007943,-0.7391365592307034,0.9216912981427697,-0.10799925152565303,0.9994640847007261,0.9947577615072151,-0.5342830514958794,1.4711003540105303,0.2922568645881827,-1.7162124936683993
-0.24903603955637832,-1.3028447635247453,0.1949677059907586,-0.21997008667302992,-0.22113279161642146,-2.050531225566304,1.519665439205211,-0.6806749972089716,-0.6678343360483474,-1.3781139014546995,-0.7904051519504942,0.6146369732727257
0.5765569630557664,0.452067838259671,-0.552924016236234,1.6346055117612015,0.6078803331197599,1.3060987127657413,0.10975760599336436,0.829817777833716,-2.2309130080407695,-0.5923524325484771,-0.12249186810883188,-1.340062402128836
0.3112501545435361,-0.3559740843858328,-1.0581464312944115,-0.19681112309762697,-1.1935915640340178,2.0704583153540717,-0.7697238435808309,1.3131828994599333,0.24548672950352024,-0.09556166927040963,-0.9457517030141738,-1.2314872528466252
3.0788808084552377,0.029190503935567446,-1.177031631453071,-1.2673369659665712,1.7338831383786082,-0.1767541819348135,-0.7478780274483465,-1.2886685838167284,-1.1860126272073002,0.46522955308348535,1.1443924077754444,-0.31678363579911717
1.1195749114345768,0.6979740301300975,1.5623545093732296,-0.6693560962502948,1.2773740385132224,-0.8979520518666041,-0.26209020036287395,-0.5998778989747807,-0.08309951488980262,1.8029456628387157,0.024850052061035795,-0.2851003036153327
-0.12791759148076653,-1.2325403112202802,0.8889877491836431,-0.9381798512212423,-1.9097976696589267,1.5060127211756882,1.0808707780680333,1.3460834138429323,-0.3628400588181685,-1.3704309011948088,0.015923547035728097,-1.7534690933107326
-0.9555404406004258,-0.684491730612797,1.7305179518279585,0.35716258570127063,-0.801937475063715,1.8903829028674712,-1.1998758126998477,0.06747288943996312,-1.0740159713896813,-0.30193798587633647,0.5954799474109356,-0.14779896385531022
-1.6064463202575725,0.4573242810867655,0.5399509007551029,-0.8959470035887789,0.47763439100988486,-0.1687954115899974,-1.8387660324127755,0.4361661656994833,0.8906271761901834,-1.4281690807145078,1.7752449393302545,-0.08899603028474248
0.2034636358672231,2.098221474546747,-0.42999140861483903,0.2710342528612446,-1.319728656149004,-0.21868061522051468,0.36205499056930357,0.0701972286062904,-0.28145990374150703,0.7899515906438427,0.08109562039102002,-0.1281186243511092
-0.7563507452843033,-0.13808233466148176,1.323340922489938,-0.7360652185406498,-0.1315940821633258,-0.0799110976714992,0.5816127512590803,0.8914888436658108,0.0542715670288776,-0.6468941806403871,-1.490890782485232,-1.6879679339448495
-1.4222537095976742,0.5911361179239325,-0.033068001361767865,-2.123378538398228,0.4266317859767969,-1.6745488892453049,1.9679694467992683,0.5129316405480331,0.5864062565027783,-0.10330371972419254,1.1819351908455082,0.14390774633865955
-0.6465728842425266,-0.10697146985848006,0.22084177029035232,0.3066197869819221,-0.1847259119794835,-0.29112587869322787,-1.3823189752667306,0.10621726392200276,0.28850164571614295,-0.17226353824702229,-1.357314121937943,0.619526008179169
-1.081548003614395,1.9422455947562995,-0.042824379075518997,0.1484636815468889,0.5388387035370963,1.714941887549245,-0.13480661196223848,-2.1016926478173197,0.14500011258317796,0.11628693834929589,-0.496439622118694,-1.3465958696725013
1.6871416350725648,-1.7472216669652556,-2.9469042192840145,0.5177578157088407,-0.6933299046018816,-0.16868866077056033,1.1618374321204779,0.6400106305149419,-0.824191963688774,-0.15627034532794687,1.1925196005556076,-1.075554820987651
0.8816397569494505,0.094621044669358,1.6047350122948532,-0.6729872191652566,-2.244181542168122,-1.0400345278722052,0.12086216760273172,0.7292409766592112,-1.1122452656543464,-0.9716820360110637,-0.3352228625507225,0.7873408614220166
-0.007972641316617372,-1.625544033562061,0.49100394595775343,-0.7795444753593765,0.9821153121650608,0.49668561930448013,-0.19543918906152408,-1.2395388727570273,0.15784751158917742,0.0848999753812093,-0.5722702496310962,1.5799762652243763
1.4799441388900259,-2.5065715705367166,0.32982306086851004,0.4014668584815456,0.9758146536025304,-0.6671987984941122,0.7899054969295414,-1.1715989082356029,-0.9619155105972037,-0.7943871752460151,0.28130156156218816,-0.16637050788348248
0.0773683076476183,0.29746205311781654,-0.0617760622705607,1.519019572530981,2.5036366422883325,-0.06645212366792694,-0.5993889642065982,0.5175985956695969,0.794441108992728,0.8145632020538126,0.009685952754444655,-0.44957299572810344
-0.8612842013282637,0.13949779614745886,0.163427820386131,0.011168009506327682,-2.2071865179343146,-1.2688487805472792,0.8514108419541485,0.19432506813426945,-0.12953974115212605,0.05741356072007187,-0.6933826197292158,0.19822147184778777
1.5231240772696573,-0.28483693774220137,-0.5972789358462477,0.42458509604714495,0.7508321093468155,-1.0366241611867317,-1.2535631921902755,-1.9747935819216604,0.6486120249838769,-1.0397427797520409,0.87759699195726,1.3563417778135543
0.5389100436846587,-0.10619409003975315,0.6165793523072711,-0.32158768442570723,-1.968682138083387,0.7376592548635927,-1.5194317032828968,-0.8220217041455778,-0.9857721362719459,2.406875666284627,1.227975635255818,-0.8500334853404203
-1.0372461543264564,3.0982994340712575,-1.3070983443991324,-1.5436305218736848,1.7564932816753192,0.11586677940108789,-0.27358801891233037,0.31384309890203466,-1.1411981309941746,1.6588518719586076,1.3879220491938993,-0.48402611889340635
-0.1903386780836082,-0.2581751380314344,0.18606843247054689,0.9674294191540579,0.48786683369600947,-0.7760573868428163,-2.5632897868965667,0.6766768691688682,1.6788731225014373,2.4434726348339546,0.5517608640439662,-0.5102745739676178
-0.8756182533847572,0.5101243612500749,0.5615734705711045,0.9084142390861619,-0.9519288476762531,0.11953513030490291,0.08469963671290325,-0.5843192198258019,-0.14946869440211333,-0.3428953089427934,-0.7010668057986225,-1.4167020095669376
-1.382799730964336,-0.6493648196138809,-0.198669133822903,0.7107740251751941,0.7802224746014357,-0.6071467087272591,-1.7325613427047113,-0.14745648849836274,0.9132162587136149,-0.8351860740602643,-1.2552799246503499,0.8527876680020553
0.9261775475316414,0.29523257504060313,0.37086779247102475,-0.18194543834241864,-0.5530450077169359,-0.7837601693701695,0.28242052056637684,-0.8793521056946221,-1.4119204085742423,0.8064991631642038,-2.316886131107002,0.26113752695148107
1.9094166404701305,-0.23823367505561752,-0.9913343922342502,0.5970560997385407,0.300416099551269,1.164034397248306,0.18545943811694546,1.3239236741615308,-0.2830282744303684,1.1080281110006114,1.0331148015483773,-2.017274967619117
-1.3985675738191412,-0.41051848272973,-0.9658267708959641,0.8937617973878307,0.205960716209084,0.7828775531887718,-0.06796238616481728,0.17458827752600908,1.302360884901999,0.19672724456222335,0.1945689895059521,-0.011351009386926148
0.5629692366905709,1.8188985322003248,0.23671712102639317,1.6201586849567073,1.7441681361472945,-0.02127284963109477,0.4364086675380921,-0.6676882828147466,-1.5646228462820142,-2.1037402990900844,-0.4189157478591971,1.6622537460069877
-0.6506425691218269,1.177184963184339,0.6785496546210517,0.988526104647442,1.8149259100865125,0.14433733724970335,0.20419746861408708,-1.156301432174818,2.275315439430989,-0.9811045731885085,-1.9333015990293945,0.2754099496057126
-0.48712538376469605,0.13674664739923068,-1.874865655501711,0.06382122503363889,-0.5972653732735059,-0.00839801733434336,-0.2930006033312716,-1.2668873687989686,0.20253878380105653,0.42250464560406187,-1.1831013269261565,1.6039900039275994
-0.5923939242388692,-2.304211935943967,0.5220206351107666,-1.3082532554243715,1.0581056179960362,0.48700925917353893,1.831006980477132,1.8115547192523307,-0.8189348507772521,-0.6601733138515575,-1.7654978668738368,-0.5601391661301831
-0.863990769679816,-0.3610092232525697,-0.5432015003763371,0.15565829767174108,0.35484015557029747,-0.7995016584556943,0.3933106935524428,-0.17351184419511592,0.3519487264106008,-1.3650102435272065,1.4419052711993594,0.9661855683785107
